空气伽马剂量率 间隔30s  (mSv/h)
计算时间(s)
30,0
60,7.58073014708925E-07
90,1.49986080816284E-06
120,1.76876065176319E-06
150,1.84943664461777E-06
180,1.84943664461777E-06
210,1.84943664461777E-06
240,1.84943664461777E-06
270,1.84943664461777E-06
300,1.84943664461777E-06
330,1.84943664461777E-06
360,1.84943664461777E-06
390,1.84943664461777E-06
420,1.84943664461777E-06
450,1.84943664461777E-06
480,1.84943664461777E-06
510,1.84943664461777E-06
540,1.84943664461777E-06
570,1.84943664461777E-06
600,1.84943664461777E-06
630,1.6743412138071E-06
660,1.45272200463292E-06
690,1.32181555864454E-06
720,1.29270642281078E-06
750,1.29270642281078E-06
780,1.29270642281078E-06
810,1.29270642281078E-06
840,1.29270642281078E-06
870,1.29270642281078E-06
900,1.29270642281078E-06
930,1.29270642281078E-06
960,1.29270642281078E-06
990,1.29270642281078E-06
1020,1.29270642281078E-06
1050,1.29270642281078E-06
1080,1.29270642281078E-06
1110,1.29270642281078E-06
1140,1.29270642281078E-06
1170,1.29270642281078E-06
1200,1.29270642281078E-06
1230,1.60607747753788E-06
1260,1.98812925738724E-06
1290,2.21656356853288E-06
1320,2.2542916325677E-06
1350,2.2542916325677E-06
1380,2.2542916325677E-06
1410,2.2542916325677E-06
1440,2.2542916325677E-06
1470,2.2542916325677E-06
1500,2.2542916325677E-06
1530,2.2542916325677E-06
1560,2.2542916325677E-06
1590,2.2542916325677E-06
1620,2.2542916325677E-06
1650,2.2542916325677E-06
1680,2.2542916325677E-06
1710,2.2542916325677E-06
1740,2.2542916325677E-06
1770,2.2542916325677E-06
1800,2.2542916325677E-06
1830,2.118841382226E-06
1860,1.98906528239922E-06
1890,1.90417109349358E-06
1920,1.88906597418858E-06
1950,1.88906597418858E-06
1980,1.88906597418858E-06
2010,1.88906597418858E-06
2040,1.88906597418858E-06
2070,1.88906597418858E-06
2100,1.88906597418858E-06
2130,1.88906597418858E-06
2160,1.88906597418858E-06
2190,1.88906597418858E-06
2220,1.88906597418858E-06
2250,1.88906597418858E-06
2280,1.88906597418858E-06
2310,1.88906597418858E-06
2340,1.88906597418858E-06
2370,1.88906597418858E-06
2400,1.88906597418858E-06
2430,2.2339166333188E-06
2460,2.38526047568463E-06
2490,2.35837592828705E-06
2520,2.36924952968853E-06
2550,2.37389368598077E-06
2580,2.37778674391644E-06
2610,2.37991846004182E-06
2640,2.38128640341566E-06
2670,2.3822855665582E-06
2700,2.38279218979616E-06
2730,2.38309406877112E-06
2760,2.38327041981269E-06
2790,2.38337854806262E-06
2820,2.38344758626057E-06
2850,2.38349320683541E-06
2880,2.3835242551906E-06
2910,2.38354363802944E-06
2940,2.3835595831565E-06
2970,2.38357121317399E-06
3000,2.3835799165132E-06
3030,2.94140203059816E-06
3060,3.83187258047195E-06
3090,4.14311755198474E-06
3120,4.14849738348932E-06
3150,4.15126606118966E-06
3180,4.13612251419475E-06
3210,4.13600981212943E-06
3240,4.13600981212943E-06
3270,4.13600981212943E-06
3300,4.13600981212943E-06
3330,4.13600981212943E-06
3360,4.13600981212943E-06
3390,4.13600981212943E-06
3420,4.13600981212943E-06
3450,4.13600981212943E-06
3480,4.13600981212943E-06
3510,4.13600981212943E-06
3540,4.13600981212943E-06
3570,4.13600981212943E-06
3600,4.13600981212943E-06
3630,4.96857006299703E-06
3660,4.64391482383925E-06
3690,4.49707204213126E-06
3720,4.5014768785718E-06
3750,4.51939705526845E-06
3780,4.52592627591457E-06
3810,4.52974602061917E-06
3840,4.53189162739151E-06
3870,4.53305587777954E-06
3900,4.53399351760087E-06
3930,4.5345394832461E-06
3960,4.53484991500954E-06
3990,4.53503447824724E-06
4020,4.53514923977973E-06
4050,4.53522334064608E-06
4080,4.53527274999415E-06
4110,4.53530662133021E-06
4140,4.53533055309531E-06
4170,4.53534763782748E-06
4200,4.5353602206297E-06
4230,4.65413873268522E-06
4260,3.84732801113771E-06
4290,3.43034296436759E-06
4320,3.3749597051811E-06
4350,3.34986126506721E-06
4380,3.34256414002681E-06
4410,3.34241327081072E-06
4440,3.3424014921017E-06
4470,3.34240018749133E-06
4500,3.34240018749133E-06
4530,3.34240018749133E-06
4560,3.34240018749133E-06
4590,3.34240018749133E-06
4620,3.34240018749133E-06
4650,3.34240018749133E-06
4680,3.34240018749133E-06
4710,3.34240018749133E-06
4740,3.34240018749133E-06
4770,3.34240018749133E-06
4800,3.34240018749133E-06
4830,4.04910585717369E-06
4860,4.69964266750244E-06
4890,5.35643578383005E-06
4920,5.45237405909002E-06
4950,5.47645836820425E-06
4980,5.4822244058468E-06
5010,5.48341218688126E-06
5040,5.48404105121649E-06
5070,5.48411834429117E-06
5100,5.48411834429117E-06
5130,5.48411834429117E-06
5160,5.48411834429117E-06
5190,5.48411834429117E-06
5220,5.48411834429117E-06
5250,5.48411834429117E-06
5280,5.48411834429117E-06
5310,5.48411834429117E-06
5340,5.48411834429117E-06
5370,5.48411834429117E-06
5400,5.48411834429117E-06
5430,4.39012806526699E-06
5460,3.42514667050256E-06
5490,3.0939825631159E-06
5520,3.04289769668722E-06
5550,3.03493413984535E-06
5580,3.03356431428727E-06
5610,3.03207726874999E-06
5640,3.03207726874999E-06
5670,3.03207726874999E-06
5700,3.03207726874999E-06
5730,3.03207726874999E-06
5760,3.03207726874999E-06
5790,3.03207726874999E-06
5820,3.03207726874999E-06
5850,3.03207726874999E-06
5880,3.03207726874999E-06
5910,3.03207726874999E-06
5940,3.03207726874999E-06
5970,3.03207726874999E-06
6000,3.03207726874999E-06
6030,3.36903891653397E-06
6060,3.63232250005796E-06
6090,4.04297934505084E-06
6120,4.12918008273488E-06
6150,4.14812919843934E-06
6180,4.15211950168661E-06
6210,4.15422528322702E-06
6240,4.15447588926722E-06
6270,4.15447588926722E-06
6300,4.15447588926722E-06
6330,4.15447588926722E-06
6360,4.15447588926722E-06
6390,4.15447588926722E-06
6420,4.15447588926722E-06
6450,4.15447588926722E-06
6480,4.15447588926722E-06
6510,4.15447588926722E-06
6540,4.15447588926722E-06
6570,4.15447588926722E-06
6600,4.15447588926722E-06
6630,4.98168601935582E-06
6660,6.08306086683888E-06
6690,6.3430994644177E-06
6720,6.33487864814507E-06
6750,6.33465981231357E-06
6780,6.33384820188721E-06
6810,6.33103566371952E-06
6840,6.33103566371952E-06
6870,6.33103566371952E-06
6900,6.33103566371952E-06
6930,6.33103566371952E-06
6960,6.33103566371952E-06
6990,6.33103566371952E-06
7020,6.33103566371952E-06
7050,6.33103566371952E-06
7080,6.33103566371952E-06
7110,6.33103566371952E-06
7140,6.33103566371952E-06
7170,6.33103566371952E-06
7200,6.33103566371952E-06
7230,5.69457646266812E-06
7260,5.1315552684186E-06
7290,5.00032932294342E-06
7320,4.99420400355367E-06
7350,4.99434020129123E-06
7380,4.99439579210164E-06
7410,4.99439579210164E-06
7440,4.99439579210164E-06
7470,4.99439579210164E-06
7500,4.99439579210164E-06
7530,4.99439579210164E-06
7560,4.99439579210164E-06
7590,4.99439579210164E-06
7620,4.99439579210164E-06
7650,4.99439579210164E-06
7680,4.99439579210164E-06
7710,4.99439579210164E-06
7740,4.99439579210164E-06
7770,4.99439579210164E-06
7800,4.99439579210164E-06
7830,4.3883121821502E-06
7860,3.90420285337779E-06
7890,3.80542791601147E-06
7920,3.81127950574105E-06
7950,3.81410490545197E-06
7980,3.81410490545197E-06
8010,3.81410490545197E-06
8040,3.81410490545197E-06
8070,3.81410490545197E-06
8100,3.81410490545197E-06
8130,3.81410490545197E-06
8160,3.81410490545197E-06
8190,3.81410490545197E-06
8220,3.81410490545197E-06
8250,3.81410490545197E-06
8280,3.81410490545197E-06
8310,3.81410490545197E-06
8340,3.81410490545197E-06
8370,3.81410490545197E-06
8400,3.81410490545197E-06
8430,4.56496818207401E-06
8460,5.36957093255077E-06
8490,5.87854601456823E-06
8520,5.98923272773224E-06
8550,6.0269776585262E-06
8580,6.03407404388874E-06
8610,6.03682748378795E-06
8640,6.0372335072952E-06
8670,6.03775270846352E-06
8700,6.03778740546336E-06
8730,6.03796884005187E-06
8760,6.03796884005187E-06
8790,6.03796884005187E-06
8820,6.03796884005187E-06
8850,6.03796884005187E-06
8880,6.03796884005187E-06
8910,6.03796884005187E-06
8940,6.03796884005187E-06
8970,6.03796884005187E-06
9000,6.03796884005187E-06
9030,8.48440373567615E-06
9060,1.20248380285762E-05
9090,1.31857900236352E-05
9120,1.3146692342621E-05
9150,1.31338712800624E-05
9180,1.31300363792867E-05
9210,1.31272190303628E-05
9240,1.31272190303628E-05
9270,1.31272190303628E-05
9300,1.31272190303628E-05
9330,1.31272190303628E-05
9360,1.31272190303628E-05
9390,1.31272190303628E-05
9420,1.31272190303628E-05
9450,1.31272190303628E-05
9480,1.31272190303628E-05
9510,1.31272190303628E-05
9540,1.31272190303628E-05
9570,1.31272190303628E-05
9600,1.31272190303628E-05
9630,1.03654316692866E-05
9660,7.96777573666338E-06
9690,7.03336641610569E-06
9720,6.94906083585917E-06
9750,6.94244033787953E-06
9780,6.94171479497155E-06
9810,6.94175694895699E-06
9840,6.94169532059703E-06
9870,6.94175773185729E-06
9900,6.9417620166364E-06
9930,6.94176773044838E-06
9960,6.94179709323582E-06
9990,6.94179709323582E-06
10020,6.94179709323582E-06
10050,6.94179709323582E-06
10080,6.94179709323582E-06
10110,6.94179709323582E-06
10140,6.94179709323582E-06
10170,6.94179709323582E-06
10200,6.94179709323582E-06
10230,9.29732849153596E-06
10260,1.14882257337791E-05
10290,1.15171203947315E-05
10320,1.14829193107034E-05
10350,1.14740928358422E-05
10380,1.14720248673425E-05
10410,1.14715263118422E-05
10440,1.14714009138879E-05
10470,1.14709172815869E-05
10500,1.14709172815869E-05
10530,1.14709172815869E-05
10560,1.14709172815869E-05
10590,1.14709172815869E-05
10620,1.14709172815869E-05
10650,1.14709172815869E-05
10680,1.14709172815869E-05
10710,1.14709172815869E-05
10740,1.14709172815869E-05
10770,1.14709172815869E-05
10800,1.14709172815869E-05
10830,1.0768840431462E-05
10860,8.96186609885736E-06
10890,8.21716224764883E-06
10920,8.1482413188248E-06
10950,8.14189377193041E-06
10980,8.13994364290301E-06
11010,8.13967424738174E-06
11040,8.13967424738174E-06
11070,8.13967424738174E-06
11100,8.13967424738174E-06
11130,8.13967424738174E-06
11160,8.13967424738174E-06
11190,8.13967424738174E-06
11220,8.13967424738174E-06
11250,8.13967424738174E-06
11280,8.13967424738174E-06
11310,8.13967424738174E-06
11340,8.13967424738174E-06
11370,8.13967424738174E-06
11400,8.13967424738174E-06
11430,7.25076442233945E-06
11460,6.50531905728239E-06
11490,6.42927601640745E-06
11520,6.44114399166887E-06
11550,6.44888606957652E-06
11580,6.45057970047548E-06
11610,6.45098613734702E-06
11640,6.45109252709106E-06
11670,6.45113487428265E-06
11700,6.45115453288536E-06
11730,6.45119573976014E-06
11760,6.45119573976014E-06
11790,6.45119573976014E-06
11820,6.45119573976014E-06
11850,6.45119573976014E-06
11880,6.45119573976014E-06
11910,6.45119573976014E-06
11940,6.45119573976014E-06
11970,6.45119573976014E-06
12000,6.45119573976014E-06
12030,6.36197670729723E-06
12060,5.31829386675749E-06
12090,5.07449575398471E-06
12120,5.03586756733149E-06
12150,5.03559694132749E-06
12180,5.03665258607423E-06
12210,5.03761787555857E-06
12240,5.03834906404337E-06
12270,5.03891159139347E-06
12300,5.0393281046494E-06
12330,5.03955504535511E-06
12360,5.03968486769702E-06
12390,5.03976309917426E-06
12420,5.03981234353273E-06
12450,5.03984452217834E-06
12480,5.03986625885086E-06
12510,5.03988140963033E-06
12540,5.0398923155899E-06
12570,5.03990044920823E-06
12600,5.03990679620481E-06
12630,5.53188431951129E-06
12660,6.06657282415389E-06
12690,6.18556544516044E-06
12720,6.21446529639973E-06
12750,6.22194585635109E-06
12780,6.22392569015317E-06
12810,6.22461946808269E-06
12840,6.22491345804044E-06
12870,6.22505669467319E-06
12900,6.22513617374097E-06
12930,6.22517445889193E-06
12960,6.22519480205208E-06
12990,6.22520648757608E-06
13020,6.22521356523841E-06
13050,6.22521798130229E-06
13080,6.22522098414297E-06
13110,6.22522306067614E-06
13140,6.22522445948808E-06
13170,6.22522556165109E-06
13200,6.22522639755032E-06
13230,6.54461173947904E-06
13260,7.11959438025767E-06
13290,6.78766172884677E-06
13320,6.71889600851283E-06
13350,6.70586898361913E-06
13380,6.70370738213414E-06
13410,6.70319817474423E-06
13440,6.70304993674577E-06
13470,6.70285537519171E-06
13500,6.70285537519171E-06
13530,6.70285537519171E-06
13560,6.70285537519171E-06
13590,6.70285537519171E-06
13620,6.70285537519171E-06
13650,6.70285537519171E-06
13680,6.70285537519171E-06
13710,6.70285537519171E-06
13740,6.70285537519171E-06
13770,6.70285537519171E-06
13800,6.70285537519171E-06
13830,5.90220326520653E-06
13860,4.72333210535811E-06
13890,4.63759606305073E-06
13920,4.64485901118076E-06
13950,4.6478860229789E-06
13980,4.64971670930682E-06
14010,4.65067563577073E-06
14040,4.65136639785976E-06
14070,4.65180517825157E-06
14100,4.65202310072996E-06
14130,4.65214033105578E-06
14160,4.65220752945567E-06
14190,4.65224810113902E-06
14220,4.65227374024519E-06
14250,4.65229062657238E-06
14280,4.65230221450436E-06
14310,4.65231054801846E-06
14340,4.65231660308259E-06
14370,4.65232140141618E-06
14400,4.65232508004957E-06
14430,7.69698805246844E-06
14460,1.15911482224494E-05
14490,1.54642614528045E-05
14520,1.57621216167385E-05
14550,1.579347463857E-05
14580,1.5799303059915E-05
14610,1.57935766762312E-05
14640,1.57935227356465E-05
14670,1.57935227356465E-05
14700,1.57935227356465E-05
14730,1.57935227356465E-05
14760,1.57935227356465E-05
14790,1.57935227356465E-05
14820,1.57935227356465E-05
14850,1.57935227356465E-05
14880,1.57935227356465E-05
14910,1.57935227356465E-05
14940,1.57935227356465E-05
14970,1.57935227356465E-05
15000,1.57935227356465E-05
15030,1.35501736453322E-05
15060,1.13902414210735E-05
15090,1.10334832414693E-05
15120,1.11815068240491E-05
15150,1.12098309673608E-05
15180,1.12201850810629E-05
15210,1.12238272294385E-05
15240,1.12244390431831E-05
15270,1.12250799093077E-05
15300,1.1225130827842E-05
15330,1.1225130827842E-05
15360,1.1225130827842E-05
15390,1.1225130827842E-05
15420,1.1225130827842E-05
15450,1.1225130827842E-05
15480,1.1225130827842E-05
15510,1.1225130827842E-05
15540,1.1225130827842E-05
15570,1.1225130827842E-05
15600,1.1225130827842E-05
15630,1.28163948740969E-05
15660,1.39198481242052E-05
15690,1.2953983189605E-05
15720,1.2788435419475E-05
15750,1.27577849406831E-05
15780,1.27525391454774E-05
15810,1.27513353834177E-05
15840,1.27498025104309E-05
15870,1.27498025104309E-05
15900,1.27498025104309E-05
15930,1.27498025104309E-05
15960,1.27498025104309E-05
15990,1.27498025104309E-05
16020,1.27498025104309E-05
16050,1.27498025104309E-05
16080,1.27498025104309E-05
16110,1.27498025104309E-05
16140,1.27498025104309E-05
16170,1.27498025104309E-05
16200,1.27498025104309E-05
16230,1.22467598295406E-05
16260,1.16240076873814E-05
16290,1.34430528972221E-05
16320,1.3950214355763E-05
16350,1.40467648443895E-05
16380,1.40714215026865E-05
16410,1.40785065893817E-05
16440,1.40802062428085E-05
16470,1.40806173728793E-05
16500,1.40806173728793E-05
16530,1.40806173728793E-05
16560,1.40806173728793E-05
16590,1.40806173728793E-05
16620,1.40806173728793E-05
16650,1.40806173728793E-05
16680,1.40806173728793E-05
16710,1.40806173728793E-05
16740,1.40806173728793E-05
16770,1.40806173728793E-05
16800,1.40806173728793E-05
16830,1.16954811366746E-05
16860,7.45076061832286E-06
16890,5.06813796717705E-06
16920,4.76008361731128E-06
16950,4.72343869905902E-06
16980,4.71552372412293E-06
17010,4.70937417701228E-06
17040,4.70937417701228E-06
17070,4.70937417701228E-06
17100,4.70937417701228E-06
17130,4.70937417701228E-06
17160,4.70937417701228E-06
17190,4.70937417701228E-06
17220,4.70937417701228E-06
17250,4.70937417701228E-06
17280,4.70937417701228E-06
17310,4.70937417701228E-06
17340,4.70937417701228E-06
17370,4.70937417701228E-06
17400,4.70937417701228E-06
17430,6.43100602240365E-06
17460,6.43864365602485E-06
17490,6.25744067435002E-06
17520,6.29940665044766E-06
17550,6.33362961069366E-06
17580,6.34658902793914E-06
17610,6.35180564199937E-06
17640,6.35489096368591E-06
17670,6.35660468684931E-06
17700,6.35764669795868E-06
17730,6.35848718463474E-06
17760,6.35897462148767E-06
17790,6.35925955825099E-06
17820,6.35943426749141E-06
17850,6.35954575311634E-06
17880,6.35961934431876E-06
17910,6.35966935470673E-06
17940,6.35970420887836E-06
17970,6.35972904628961E-06
18000,6.3597471340689E-06
18030,7.18658001540872E-06
18060,7.84795230238065E-06
18090,8.15071831166728E-06
18120,8.23392961523332E-06
18150,8.25695245318822E-06
18180,8.26437441181448E-06
18210,8.26677050244054E-06
18240,8.2677261034682E-06
18270,8.26816584566839E-06
18300,8.2683890296792E-06
18330,8.2685098122512E-06
18360,8.26857642469187E-06
18390,8.2686128355355E-06
18420,8.26863432456032E-06
18450,8.26864732124715E-06
18480,8.26865593852598E-06
18510,8.26866175349933E-06
18540,8.26866553942682E-06
18570,8.26866852176187E-06
18600,8.26867043250755E-06
18630,9.33260405549503E-06
18660,8.76996399912939E-06
18690,7.79473160246781E-06
18720,7.64747107223933E-06
18750,7.61795912073842E-06
18780,7.61288395271697E-06
18810,7.61173611949981E-06
18840,7.61139418754865E-06
18870,7.61112150597005E-06
18900,7.61112150597005E-06
18930,7.61112150597005E-06
18960,7.61112150597005E-06
18990,7.61112150597005E-06
19020,7.61112150597005E-06
19050,7.61112150597005E-06
19080,7.61112150597005E-06
19110,7.61112150597005E-06
19140,7.61112150597005E-06
19170,7.61112150597005E-06
19200,7.61112150597005E-06
19230,5.82843526666858E-06
19260,4.38663334942213E-06
19290,4.25817115782702E-06
19320,4.25789716845055E-06
19350,4.26016751659424E-06
19380,4.26176728048123E-06
19410,4.26279394435121E-06
19440,4.26346478702439E-06
19470,4.26393995036448E-06
19500,4.26418512111332E-06
19530,4.2643177820744E-06
19560,4.26439416738657E-06
19590,4.26444044368659E-06
19620,4.26446974081105E-06
19650,4.26448902952101E-06
19680,4.26450221371978E-06
19710,4.2645116063498E-06
19740,4.26451862593127E-06
19770,4.26452402773867E-06
19800,4.2645281615729E-06
19830,3.89709358059333E-06
19860,3.42225131679395E-06
19890,3.36418387849669E-06
19920,3.33287498768726E-06
19950,3.32690948049205E-06
19980,3.32612975891499E-06
20010,3.32590856556971E-06
20040,3.32541899604487E-06
20070,3.32533415821196E-06
20100,3.32532023988214E-06
20130,3.32531652014759E-06
20160,3.32531524804604E-06
20190,3.32531524804604E-06
20220,3.32531524804604E-06
20250,3.32531524804604E-06
20280,3.32531524804604E-06
20310,3.32531524804604E-06
20340,3.32531524804604E-06
20370,3.32531524804604E-06
20400,3.32531524804604E-06
20430,3.73707266382547E-06
20460,4.27100718913453E-06
20490,4.35497259797024E-06
20520,4.36158373384553E-06
20550,4.36280665512973E-06
20580,4.36280665512973E-06
20610,4.36280665512973E-06
20640,4.36280665512973E-06
20670,4.36280665512973E-06
20700,4.36280665512973E-06
20730,4.36280665512973E-06
20760,4.36280665512973E-06
20790,4.36280665512973E-06
20820,4.36280665512973E-06
20850,4.36280665512973E-06
20880,4.36280665512973E-06
20910,4.36280665512973E-06
20940,4.36280665512973E-06
20970,4.36280665512973E-06
21000,4.36280665512973E-06
21030,5.02187128578566E-06
21060,4.89381390105982E-06
21090,4.78329440061229E-06
21120,4.77596596466477E-06
21150,4.77475974293389E-06
21180,4.77455132342349E-06
21210,4.77450367050482E-06
21240,4.77449527435865E-06
21270,4.77453729353245E-06
21300,4.77453729353245E-06
21330,4.77453729353245E-06
21360,4.77453729353245E-06
21390,4.77453729353245E-06
21420,4.77453729353245E-06
21450,4.77453729353245E-06
21480,4.77453729353245E-06
21510,4.77453729353245E-06
21540,4.77453729353245E-06
21570,4.77453729353245E-06
21600,4.77453729353245E-06
21630,4.60561069486922E-06
21660,3.56117606305185E-06
21690,3.98857631090405E-06
21720,4.19837836617321E-06
21750,4.25610657636226E-06
21780,4.26994251650576E-06
21810,4.27332440403125E-06
21840,4.27439290694984E-06
21870,4.27439290694984E-06
21900,4.27439290694984E-06
21930,4.27439290694984E-06
21960,4.27439290694984E-06
21990,4.27439290694984E-06
22020,4.27439290694984E-06
22050,4.27439290694984E-06
22080,4.27439290694984E-06
22110,4.27439290694984E-06
22140,4.27439290694984E-06
22170,4.27439290694984E-06
22200,4.27439290694984E-06
22230,7.21976900863359E-06
22260,1.12956335181433E-05
22290,1.18627207752843E-05
22320,1.18209183224249E-05
22350,1.18057512860923E-05
22380,1.18013509505699E-05
22410,1.18000931892693E-05
22440,1.17995877444511E-05
22470,1.17991749074422E-05
22500,1.17991749074422E-05
22530,1.17991749074422E-05
22560,1.17991749074422E-05
22590,1.17991749074422E-05
22620,1.17991749074422E-05
22650,1.17991749074422E-05
22680,1.17991749074422E-05
