空气伽马剂量率 间隔30s  (mSv/h)
计算时间(s)
30,0
60,8.52196271931011E-07
90,1.7333966157351E-06
120,2.08148217326709E-06
150,2.17863572232983E-06
180,2.20760476871218E-06
210,2.217352235866E-06
240,2.2210314290742E-06
270,2.2210314290742E-06
300,2.2210314290742E-06
330,2.2210314290742E-06
360,2.2210314290742E-06
390,2.2210314290742E-06
420,2.2210314290742E-06
450,2.2210314290742E-06
480,2.2210314290742E-06
510,2.2210314290742E-06
540,2.2210314290742E-06
570,2.2210314290742E-06
600,2.2210314290742E-06
630,2.75564087552154E-06
660,3.37567275080986E-06
690,4.10681146137545E-06
720,4.56147226781878E-06
750,4.71266634560009E-06
780,4.76478673613254E-06
810,4.78026625211337E-06
840,4.78563767436171E-06
870,4.78764868119263E-06
900,4.78857561393869E-06
930,4.78892563904768E-06
960,4.78910566148529E-06
990,4.7891718105608E-06
1020,4.78920170193131E-06
1050,4.78921092888008E-06
1080,4.78921092888008E-06
1110,4.78921092888008E-06
1140,4.78921092888008E-06
1170,4.78921092888008E-06
1200,4.78921092888008E-06
1230,3.85843894353304E-06
1260,2.97044560755045E-06
1290,2.42507712155386E-06
1320,2.23792317331185E-06
1350,2.16642970599728E-06
1380,2.12150136358281E-06
1410,2.12150136358281E-06
1440,2.12150136358281E-06
1470,2.12150136358281E-06
1500,2.12150136358281E-06
1530,2.12150136358281E-06
1560,2.12150136358281E-06
1590,2.12150136358281E-06
1620,2.12150136358281E-06
1650,2.12150136358281E-06
1680,2.12150136358281E-06
1710,2.12150136358281E-06
1740,2.12150136358281E-06
1770,2.12150136358281E-06
1800,2.12150136358281E-06
1830,3.16583471220384E-06
1860,4.55885059078589E-06
1890,5.10896010878444E-06
1920,5.12089468537433E-06
1950,5.12410479065217E-06
1980,5.12361890347431E-06
2010,5.1232572159746E-06
2040,5.12302668220297E-06
2070,5.12274237218725E-06
2100,5.12271492169389E-06
2130,5.12271492169389E-06
2160,5.12271492169389E-06
2190,5.12271492169389E-06
2220,5.12271492169389E-06
2250,5.12271492169389E-06
2280,5.12271492169389E-06
2310,5.12271492169389E-06
2340,5.12271492169389E-06
2370,5.12271492169389E-06
2400,5.12271492169389E-06
2430,5.61357552536264E-06
2460,6.10704117267536E-06
2490,6.55845835386807E-06
2520,6.69524160658625E-06
2550,6.72191188573641E-06
2580,6.7289233165185E-06
2610,6.73072421186461E-06
2640,6.73126816012753E-06
2670,6.73144414652736E-06
2700,6.73148923258103E-06
2730,6.73148923258103E-06
2760,6.73148923258103E-06
2790,6.73148923258103E-06
2820,6.73148923258103E-06
2850,6.73148923258103E-06
2880,6.73148923258103E-06
2910,6.73148923258103E-06
2940,6.73148923258103E-06
2970,6.73148923258103E-06
3000,6.73148923258103E-06
3030,6.41703874286008E-06
3060,6.14690084077953E-06
3090,6.06267122410519E-06
3120,6.18054957487303E-06
3150,6.2249630960459E-06
3180,6.23941653412589E-06
3210,6.24371892308514E-06
3240,6.24517928277614E-06
3270,6.24569781866682E-06
3300,6.24589093151126E-06
3330,6.24625709357233E-06
3360,6.24627969449691E-06
3390,6.24627969449691E-06
3420,6.24627969449691E-06
3450,6.24627969449691E-06
3480,6.24627969449691E-06
3510,6.24627969449691E-06
3540,6.24627969449691E-06
3570,6.24627969449691E-06
3600,6.24627969449691E-06
3630,7.86615487930983E-06
3660,9.69663566961303E-06
3690,1.13217695557723E-05
3720,1.17864346774673E-05
3750,1.18737138293629E-05
3780,1.18903828575153E-05
3810,1.18950329848491E-05
3840,1.18951876075882E-05
3870,1.18955266011351E-05
3900,1.18956142376076E-05
3930,1.18956142376076E-05
3960,1.18956142376076E-05
3990,1.18956142376076E-05
4020,1.18956142376076E-05
4050,1.18956142376076E-05
4080,1.18956142376076E-05
4110,1.18956142376076E-05
4140,1.18956142376076E-05
4170,1.18956142376076E-05
4200,1.18956142376076E-05
4230,9.52739150574475E-06
4260,6.81525201050738E-06
4290,5.15131633975651E-06
4320,4.91582279584486E-06
4350,4.8823160834894E-06
4380,4.87334506556258E-06
4410,4.87334506556258E-06
4440,4.87334506556258E-06
4470,4.87334506556258E-06
4500,4.87334506556258E-06
4530,4.87334506556258E-06
4560,4.87334506556258E-06
4590,4.87334506556258E-06
4620,4.87334506556258E-06
4650,4.87334506556258E-06
4680,4.87334506556258E-06
4710,4.87334506556258E-06
4740,4.87334506556258E-06
4770,4.87334506556258E-06
4800,4.87334506556258E-06
4830,6.44340436481285E-06
4860,8.37535570768884E-06
4890,9.4020158290567E-06
4920,9.49597155969917E-06
4950,9.50822768791051E-06
4980,9.5102614113727E-06
5010,9.5102614113727E-06
5040,9.5102614113727E-06
5070,9.5102614113727E-06
5100,9.5102614113727E-06
5130,9.5102614113727E-06
5160,9.5102614113727E-06
5190,9.5102614113727E-06
5220,9.5102614113727E-06
5250,9.5102614113727E-06
5280,9.5102614113727E-06
5310,9.5102614113727E-06
5340,9.5102614113727E-06
5370,9.5102614113727E-06
5400,9.5102614113727E-06
5430,8.25938952693536E-06
5460,7.53188397163556E-06
5490,7.74029075610756E-06
5520,8.07486972573441E-06
5550,8.14322110944372E-06
5580,8.15937243738483E-06
5610,8.16364811149483E-06
5640,8.16843234914345E-06
5670,8.16843234914345E-06
5700,8.16843234914345E-06
5730,8.16843234914345E-06
5760,8.16843234914345E-06
5790,8.16843234914345E-06
5820,8.16843234914345E-06
5850,8.16843234914345E-06
5880,8.16843234914345E-06
5910,8.16843234914345E-06
5940,8.16843234914345E-06
5970,8.16843234914345E-06
6000,8.16843234914345E-06
6030,1.20273891697974E-05
6060,1.56743047689885E-05
6090,1.60778081766775E-05
6120,1.59136165760521E-05
6150,1.58665817828018E-05
6180,1.58608458760495E-05
6210,1.58608458760495E-05
6240,1.58608458760495E-05
6270,1.58608458760495E-05
6300,1.58608458760495E-05
6330,1.58608458760495E-05
6360,1.58608458760495E-05
6390,1.58608458760495E-05
6420,1.58608458760495E-05
6450,1.58608458760495E-05
6480,1.58608458760495E-05
6510,1.58608458760495E-05
6540,1.58608458760495E-05
6570,1.58608458760495E-05
6600,1.58608458760495E-05
6630,1.68913275450617E-05
6660,1.62485018030112E-05
6690,1.46018607856457E-05
6720,1.78664544886308E-05
6750,1.86604210297262E-05
6780,1.88541375111916E-05
6810,1.89011788989821E-05
6840,1.89168357902631E-05
6870,1.89312326623902E-05
6900,1.89312326623902E-05
6930,1.89312326623902E-05
6960,1.89312326623902E-05
6990,1.89312326623902E-05
7020,1.89312326623902E-05
7050,1.89312326623902E-05
7080,1.89312326623902E-05
7110,1.89312326623902E-05
7140,1.89312326623902E-05
7170,1.89312326623902E-05
7200,1.89312326623902E-05
7230,1.79759695306173E-05
7260,1.71284404670979E-05
7290,1.63584583808027E-05
7320,1.62996512153398E-05
7350,1.64247787637451E-05
7380,1.6463456315643E-05
7410,1.64744795428601E-05
7440,1.64780528179228E-05
7470,1.64791596578692E-05
7500,1.64870197193662E-05
7530,1.64870197193662E-05
7560,1.64870197193662E-05
7590,1.64870197193662E-05
7620,1.64870197193662E-05
7650,1.64870197193662E-05
7680,1.64870197193662E-05
7710,1.64870197193662E-05
7740,1.64870197193662E-05
7770,1.64870197193662E-05
7800,1.64870197193662E-05
7830,1.45124942682699E-05
7860,1.28088827836715E-05
7890,1.10411602411351E-05
7920,1.00120391929002E-05
7950,9.8704616380882E-06
7980,9.85653101990868E-06
8010,9.85732408795599E-06
8040,9.85860076999389E-06
8070,9.8592552360315E-06
8100,9.85945513360934E-06
8130,9.85945513360934E-06
8160,9.85945513360934E-06
8190,9.85945513360934E-06
8220,9.85945513360934E-06
8250,9.85945513360934E-06
8280,9.85945513360934E-06
8310,9.85945513360934E-06
8340,9.85945513360934E-06
8370,9.85945513360934E-06
8400,9.85945513360934E-06
8430,1.0132608974958E-05
8460,1.04160903127152E-05
8490,1.07561864780119E-05
8520,1.07724078390238E-05
8550,1.06862840858732E-05
8580,1.06525046345576E-05
8610,1.06416532575849E-05
8640,1.06373805053489E-05
8670,1.06362448476212E-05
8700,1.06359667826685E-05
8730,1.06359667826685E-05
8760,1.06359667826685E-05
8790,1.06359667826685E-05
8820,1.06359667826685E-05
8850,1.06359667826685E-05
8880,1.06359667826685E-05
8910,1.06359667826685E-05
8940,1.06359667826685E-05
8970,1.06359667826685E-05
9000,1.06359667826685E-05
9030,1.15636781300261E-05
9060,1.258520499612E-05
9090,1.3713828179145E-05
9120,1.4921540118714E-05
9150,1.53851142182306E-05
9180,1.54981065549403E-05
9210,1.55264121132368E-05
9240,1.55355771940928E-05
9270,1.55390787192081E-05
9300,1.5539946353419E-05
9330,1.5539946353419E-05
9360,1.5539946353419E-05
9390,1.5539946353419E-05
9420,1.5539946353419E-05
9450,1.5539946353419E-05
9480,1.5539946353419E-05
9510,1.5539946353419E-05
9540,1.5539946353419E-05
9570,1.5539946353419E-05
9600,1.5539946353419E-05
9630,1.12896800463948E-05
9660,8.3269118131702E-06
9690,6.23929603788103E-06
9720,4.9877757491857E-06
9750,4.62652910472016E-06
9780,4.53694945462634E-06
9810,4.51198661654198E-06
9840,4.50262097513785E-06
9870,4.49956747720828E-06
9900,4.4985938179662E-06
9930,4.49826211679317E-06
9960,4.49816026169736E-06
9990,4.49851366270305E-06
10020,4.49851366270305E-06
10050,4.49851366270305E-06
10080,4.49851366270305E-06
10110,4.49851366270305E-06
10140,4.49851366270305E-06
10170,4.49851366270305E-06
10200,4.49851366270305E-06
