空气伽马剂量率 间隔30s  (mSv/h)
计算时间(s)
30,0
60,9.38249344259802E-07
90,1.94580377843219E-06
120,2.29043723204987E-06
150,2.39086041095105E-06
180,2.39086041095105E-06
210,2.39086041095105E-06
240,2.39086041095105E-06
270,2.39086041095105E-06
300,2.39086041095105E-06
330,2.39086041095105E-06
360,2.39086041095105E-06
390,2.39086041095105E-06
420,2.39086041095105E-06
450,2.39086041095105E-06
480,2.39086041095105E-06
510,2.39086041095105E-06
540,2.39086041095105E-06
570,2.39086041095105E-06
600,2.39086041095105E-06
630,2.15984704160437E-06
660,1.92686418243643E-06
690,1.68549374239745E-06
720,1.65160735510657E-06
750,1.65160735510657E-06
780,1.65160735510657E-06
810,1.65160735510657E-06
840,1.65160735510657E-06
870,1.65160735510657E-06
900,1.65160735510657E-06
930,1.65160735510657E-06
960,1.65160735510657E-06
990,1.65160735510657E-06
1020,1.65160735510657E-06
1050,1.65160735510657E-06
1080,1.65160735510657E-06
1110,1.65160735510657E-06
1140,1.65160735510657E-06
1170,1.65160735510657E-06
1200,1.65160735510657E-06
1230,2.07589729537968E-06
1260,2.60014348077487E-06
1290,2.94100009149839E-06
1320,2.99006279368912E-06
1350,3.0553330116835E-06
1380,3.0553330116835E-06
1410,3.0553330116835E-06
1440,3.0553330116835E-06
1470,3.0553330116835E-06
1500,3.0553330116835E-06
1530,3.0553330116835E-06
1560,3.0553330116835E-06
1590,3.0553330116835E-06
1620,3.0553330116835E-06
1650,3.0553330116835E-06
1680,3.0553330116835E-06
1710,3.0553330116835E-06
1740,3.0553330116835E-06
1770,3.0553330116835E-06
1800,3.0553330116835E-06
1830,2.81444051281045E-06
1860,2.64665898449289E-06
1890,2.52258976986855E-06
1920,2.50296671493834E-06
1950,2.50296671493834E-06
1980,2.50296671493834E-06
2010,2.50296671493834E-06
2040,2.50296671493834E-06
2070,2.50296671493834E-06
2100,2.50296671493834E-06
2130,2.50296671493834E-06
2160,2.50296671493834E-06
2190,2.50296671493834E-06
2220,2.50296671493834E-06
2250,2.50296671493834E-06
2280,2.50296671493834E-06
2310,2.50296671493834E-06
2340,2.50296671493834E-06
2370,2.50296671493834E-06
2400,2.50296671493834E-06
2430,2.89809339946261E-06
2460,2.94116250296441E-06
2490,2.84019636833981E-06
2520,2.85339627380703E-06
2550,2.85802756274549E-06
2580,2.86181627787248E-06
2610,2.8642494612214E-06
2640,2.86546285842328E-06
2670,2.86651071825097E-06
2700,2.86707310647252E-06
2730,2.86740436494945E-06
2760,2.86759625803006E-06
2790,2.86771310846653E-06
2820,2.8677872882798E-06
2850,2.86783606830462E-06
2880,2.86786912828797E-06
2910,2.86789212710837E-06
2940,2.86790849591294E-06
2970,2.8679188457106E-06
3000,2.86792799978772E-06
3030,3.80526553579096E-06
3060,5.0395212154444E-06
3090,5.48626578139104E-06
3120,5.48262585259759E-06
3150,5.48443422786373E-06
3180,5.48072993345953E-06
3210,5.47901807690216E-06
3240,5.47901807690216E-06
3270,5.47901807690216E-06
3300,5.47901807690216E-06
3330,5.47901807690216E-06
3360,5.47901807690216E-06
3390,5.47901807690216E-06
3420,5.47901807690216E-06
3450,5.47901807690216E-06
3480,5.47901807690216E-06
3510,5.47901807690216E-06
3540,5.47901807690216E-06
3570,5.47901807690216E-06
3600,5.47901807690216E-06
3630,6.08276235808894E-06
3660,5.38416443906938E-06
3690,5.16311800137669E-06
3720,5.16376284552751E-06
3750,5.18333521111082E-06
3780,5.19051127483438E-06
3810,5.19433969425922E-06
3840,5.19666410080557E-06
3870,5.19775650088702E-06
3900,5.19868108812051E-06
3930,5.19926443025409E-06
3960,5.19959444963204E-06
3990,5.19978962732119E-06
4020,5.19991046167119E-06
4050,5.19998819847677E-06
4080,5.2000400643903E-06
4110,5.20007536504873E-06
4140,5.20010009612062E-06
4170,5.2001178353453E-06
4200,5.20013087466684E-06
4230,5.8414727799883E-06
4260,5.16702469084593E-06
4290,4.70127455526024E-06
4320,4.63232198232423E-06
4350,4.62354481569055E-06
4380,4.6157518026374E-06
4410,4.61544270147592E-06
4440,4.61542671745468E-06
4470,4.61542453004248E-06
4500,4.61542453004248E-06
4530,4.61542453004248E-06
4560,4.61542453004248E-06
4590,4.61542453004248E-06
4620,4.61542453004248E-06
4650,4.61542453004248E-06
4680,4.61542453004248E-06
4710,4.61542453004248E-06
4740,4.61542453004248E-06
4770,4.61542453004248E-06
4800,4.61542453004248E-06
4830,5.46545199916229E-06
4860,6.23300552714122E-06
4890,6.92504883338799E-06
4920,7.03941720287901E-06
4950,7.06748081764154E-06
4980,7.07388203606265E-06
5010,7.07518069692074E-06
5040,7.07585459062223E-06
5070,7.07593734307804E-06
5100,7.07611111978656E-06
5130,7.07611111978656E-06
5160,7.07611111978656E-06
5190,7.07611111978656E-06
5220,7.07611111978656E-06
5250,7.07611111978656E-06
5280,7.07611111978656E-06
5310,7.07611111978656E-06
5340,7.07611111978656E-06
5370,7.07611111978656E-06
5400,7.07611111978656E-06
5430,5.91770242563791E-06
5460,4.61815832330322E-06
5490,4.19933147834474E-06
5520,4.13645057054889E-06
5550,4.12801598027447E-06
5580,4.12587130825116E-06
5610,4.12559380872731E-06
5640,4.12559380872731E-06
5670,4.12559380872731E-06
5700,4.12559380872731E-06
5730,4.12559380872731E-06
5760,4.12559380872731E-06
5790,4.12559380872731E-06
5820,4.12559380872731E-06
5850,4.12559380872731E-06
5880,4.12559380872731E-06
5910,4.12559380872731E-06
5940,4.12559380872731E-06
5970,4.12559380872731E-06
6000,4.12559380872731E-06
6030,4.50001040935287E-06
6060,4.72708620983907E-06
6090,5.31355543250719E-06
6120,5.41941550997754E-06
6150,5.44220108594375E-06
6180,5.44693303174036E-06
6210,5.44815369167828E-06
6240,5.44842795814398E-06
6270,5.44842795814398E-06
6300,5.44842795814398E-06
6330,5.44842795814398E-06
6360,5.44842795814398E-06
6390,5.44842795814398E-06
6420,5.44842795814398E-06
6450,5.44842795814398E-06
6480,5.44842795814398E-06
6510,5.44842795814398E-06
6540,5.44842795814398E-06
6570,5.44842795814398E-06
6600,5.44842795814398E-06
6630,6.55759637900574E-06
6660,8.05620278853363E-06
6690,8.37822292857071E-06
6720,8.3597868544813E-06
6750,8.35878008413851E-06
6780,8.35815817466392E-06
6810,8.35792092241843E-06
6840,8.35792092241843E-06
6870,8.35792092241843E-06
6900,8.35792092241843E-06
6930,8.35792092241843E-06
6960,8.35792092241843E-06
6990,8.35792092241843E-06
7020,8.35792092241843E-06
7050,8.35792092241843E-06
7080,8.35792092241843E-06
7110,8.35792092241843E-06
7140,8.35792092241843E-06
7170,8.35792092241843E-06
7200,8.35792092241843E-06
7230,7.48636891647778E-06
7260,6.73276360116917E-06
7290,6.56001672605022E-06
7320,6.55205584605028E-06
7350,6.5524801155313E-06
7380,6.55258698326811E-06
7410,6.55258698326811E-06
7440,6.55258698326811E-06
7470,6.55258698326811E-06
7500,6.55258698326811E-06
7530,6.55258698326811E-06
7560,6.55258698326811E-06
7590,6.55258698326811E-06
7620,6.55258698326811E-06
7650,6.55258698326811E-06
7680,6.55258698326811E-06
7710,6.55258698326811E-06
7740,6.55258698326811E-06
7770,6.55258698326811E-06
7800,6.55258698326811E-06
7830,5.83476639897417E-06
7860,5.13698219370006E-06
7890,5.02419544201224E-06
7920,5.03595000025636E-06
7950,5.0404678920899E-06
7980,5.04132736106604E-06
8010,5.04132736106604E-06
8040,5.04132736106604E-06
8070,5.04132736106604E-06
8100,5.04132736106604E-06
8130,5.04132736106604E-06
8160,5.04132736106604E-06
8190,5.04132736106604E-06
8220,5.04132736106604E-06
8250,5.04132736106604E-06
8280,5.04132736106604E-06
8310,5.04132736106604E-06
8340,5.04132736106604E-06
8370,5.04132736106604E-06
8400,5.04132736106604E-06
8430,6.00677785767245E-06
8460,6.85469371291995E-06
8490,7.35312652817672E-06
8520,7.49370496689742E-06
8550,7.53024962164485E-06
8580,7.5393114859947E-06
8610,7.54127509999419E-06
8640,7.54212813799598E-06
8670,7.54227063026626E-06
8700,7.5423075970696E-06
8730,7.54249994079514E-06
8760,7.54249994079514E-06
8790,7.54249994079514E-06
8820,7.54249994079514E-06
8850,7.54249994079514E-06
8880,7.54249994079514E-06
8910,7.54249994079514E-06
8940,7.54249994079514E-06
8970,7.54249994079514E-06
9000,7.54249994079514E-06
9030,1.04690088543486E-05
9060,1.41564620127719E-05
9090,1.50572221257571E-05
9120,1.49789728322369E-05
9150,1.49617259825963E-05
9180,1.49573608224322E-05
9210,1.49482045567513E-05
9240,1.49482045567513E-05
9270,1.49482045567513E-05
9300,1.49482045567513E-05
9330,1.49482045567513E-05
9360,1.49482045567513E-05
9390,1.49482045567513E-05
9420,1.49482045567513E-05
9450,1.49482045567513E-05
9480,1.49482045567513E-05
9510,1.49482045567513E-05
9540,1.49482045567513E-05
9570,1.49482045567513E-05
9600,1.49482045567513E-05
9630,1.24424630166924E-05
9660,9.89062284996716E-06
9690,8.89630377377588E-06
9720,8.80924052091708E-06
9750,8.80446228421463E-06
9780,8.80395429450883E-06
9810,8.80406001843954E-06
9840,8.80401028976361E-06
9870,8.80407387534611E-06
9900,8.80407979780359E-06
9930,8.80408640065642E-06
9960,8.80411800721112E-06
9990,8.80411800721112E-06
10020,8.80411800721112E-06
10050,8.80411800721112E-06
10080,8.80411800721112E-06
10110,8.80411800721112E-06
10140,8.80411800721112E-06
10170,8.80411800721112E-06
10200,8.80411800721112E-06
10230,1.09475916992432E-05
10260,1.2844724270606E-05
10290,1.27207457031499E-05
10320,1.26689617857854E-05
10350,1.26575634983236E-05
10380,1.26551528618322E-05
10410,1.26545919435566E-05
10440,1.26539577845822E-05
10470,1.26539577845822E-05
10500,1.26539577845822E-05
10530,1.26539577845822E-05
10560,1.26539577845822E-05
10590,1.26539577845822E-05
10620,1.26539577845822E-05
10650,1.26539577845822E-05
10680,1.26539577845822E-05
10710,1.26539577845822E-05
10740,1.26539577845822E-05
10770,1.26539577845822E-05
10800,1.26539577845822E-05
10830,1.28130076318995E-05
10860,1.1532176737821E-05
10890,1.0827121104335E-05
10920,1.07534108125669E-05
10950,1.07468024498355E-05
10980,1.07449545811226E-05
11010,1.07446722101425E-05
11040,1.07446722101425E-05
11070,1.07446722101425E-05
11100,1.07446722101425E-05
11130,1.07446722101425E-05
11160,1.07446722101425E-05
11190,1.07446722101425E-05
11220,1.07446722101425E-05
11250,1.07446722101425E-05
11280,1.07446722101425E-05
11310,1.07446722101425E-05
11340,1.07446722101425E-05
11370,1.07446722101425E-05
11400,1.07446722101425E-05
11430,9.26189512606107E-06
11460,8.05974373953148E-06
11490,7.94993565913683E-06
11520,7.96708247535302E-06
11550,7.97660332275841E-06
11580,7.97854334418323E-06
11610,7.97899636022187E-06
11640,7.97910896602101E-06
11670,7.97915553296947E-06
11700,7.97920996330684E-06
11730,7.97921708754296E-06
11760,7.97921708754296E-06
11790,7.97921708754296E-06
11820,7.97921708754296E-06
11850,7.97921708754296E-06
11880,7.97921708754296E-06
11910,7.97921708754296E-06
11940,7.97921708754296E-06
11970,7.97921708754296E-06
12000,7.97921708754296E-06
12030,7.42213075926979E-06
12060,6.01366384841191E-06
12090,5.714689547308E-06
12120,5.67259809296174E-06
12150,5.67188154260449E-06
12180,5.67302881436134E-06
12210,5.67388616931039E-06
12240,5.67466709510706E-06
12270,5.6751822140444E-06
12300,5.67562290863251E-06
12330,5.67586159460814E-06
12360,5.67599749726573E-06
12390,5.67607908086804E-06
12420,5.67613027217401E-06
12450,5.67616363259188E-06
12480,5.67618611457411E-06
12510,5.67620175199286E-06
12540,5.67621298652669E-06
12570,5.67622123009148E-06
12600,5.6762277525531E-06
12630,6.14344899329725E-06
12660,6.56855274081695E-06
12690,6.69297329367117E-06
12720,6.72205280677343E-06
12750,6.72951725931556E-06
12780,6.73147484894401E-06
12810,6.73215916807256E-06
12840,6.73244898669385E-06
12870,6.73259034962502E-06
12900,6.73265972653714E-06
12930,6.73269739516456E-06
12960,6.73271740092039E-06
12990,6.73272889568806E-06
13020,6.73273586109338E-06
13050,6.73274020790886E-06
13080,6.73274316810009E-06
13110,6.7327452172273E-06
13140,6.73274659709137E-06
13170,6.73274768716084E-06
13200,6.73274851471335E-06
13230,7.51569009298252E-06
13260,8.41193594861933E-06
13290,8.08134418770326E-06
13320,8.01131511947121E-06
13350,7.99718694240425E-06
13380,7.99488536448369E-06
13410,7.99434985127677E-06
13440,7.99419491369945E-06
13470,7.99399444392317E-06
13500,7.99399444392317E-06
13530,7.99399444392317E-06
13560,7.99399444392317E-06
13590,7.99399444392317E-06
13620,7.99399444392317E-06
13650,7.99399444392317E-06
13680,7.99399444392317E-06
13710,7.99399444392317E-06
13740,7.99399444392317E-06
13770,7.99399444392317E-06
13800,7.99399444392317E-06
13830,6.63259681614329E-06
13860,5.15833326292568E-06
13890,5.0409059513382E-06
13920,5.04887700116947E-06
13950,5.05215419678969E-06
13980,5.05395969866766E-06
14010,5.05497185511952E-06
14040,5.05563597403969E-06
14070,5.05609600113755E-06
14100,5.05632320216621E-06
14130,5.05644489747092E-06
14160,5.05651441583653E-06
14190,5.05655627038735E-06
14220,5.05658265730992E-06
14250,5.05660000014137E-06
14280,5.0566118790335E-06
14310,5.05662010505663E-06
14340,5.05662659350803E-06
14370,5.05663148795651E-06
14400,5.05663523574187E-06
14430,8.50909845720411E-06
14460,1.19212701136023E-05
14490,1.575460071336E-05
14520,1.60401068428174E-05
14550,1.60696274092897E-05
14580,1.60752161933563E-05
14610,1.60693632001217E-05
14640,1.60693426352657E-05
14670,1.60693426352657E-05
14700,1.60693426352657E-05
14730,1.60693426352657E-05
14760,1.60693426352657E-05
14790,1.60693426352657E-05
14820,1.60693426352657E-05
14850,1.60693426352657E-05
14880,1.60693426352657E-05
14910,1.60693426352657E-05
14940,1.60693426352657E-05
14970,1.60693426352657E-05
15000,1.60693426352657E-05
15030,1.45025277256227E-05
15060,1.27366456508535E-05
15090,1.2585069518246E-05
15120,1.2780157871915E-05
15150,1.28163590363844E-05
15180,1.28280051318242E-05
15210,1.2831911853817E-05
15240,1.28325758488018E-05
15270,1.28327334436219E-05
15300,1.28332954872819E-05
15330,1.28332954872819E-05
15360,1.28332954872819E-05
15390,1.28332954872819E-05
15420,1.28332954872819E-05
15450,1.28332954872819E-05
15480,1.28332954872819E-05
15510,1.28332954872819E-05
15540,1.28332954872819E-05
15570,1.28332954872819E-05
15600,1.28332954872819E-05
15630,1.39669235344105E-05
15660,1.4399117667086E-05
15690,1.32900179339747E-05
15720,1.31087546319933E-05
15750,1.30760519482072E-05
15780,1.30705615255196E-05
15810,1.30693165339809E-05
15840,1.3067767192099E-05
15870,1.3067767192099E-05
15900,1.3067767192099E-05
15930,1.3067767192099E-05
15960,1.3067767192099E-05
15990,1.3067767192099E-05
16020,1.3067767192099E-05
16050,1.3067767192099E-05
16080,1.3067767192099E-05
16110,1.3067767192099E-05
16140,1.3067767192099E-05
16170,1.3067767192099E-05
16200,1.3067767192099E-05
16230,1.25829025111264E-05
16260,1.19478980044596E-05
16290,1.3815606341921E-05
16320,1.43386382539415E-05
16350,1.44371354526008E-05
16380,1.44622440496699E-05
16410,1.44678993916677E-05
16440,1.44711356847475E-05
16470,1.44715507531501E-05
16500,1.44715507531501E-05
16530,1.44715507531501E-05
16560,1.44715507531501E-05
16590,1.44715507531501E-05
16620,1.44715507531501E-05
16650,1.44715507531501E-05
16680,1.44715507531501E-05
16710,1.44715507531501E-05
16740,1.44715507531501E-05
16770,1.44715507531501E-05
16800,1.44715507531501E-05
16830,1.35260687667662E-05
16860,9.41592955274752E-06
16890,6.61553592843625E-06
16920,6.27130958898081E-06
16950,6.23106364124927E-06
16980,6.22316507066329E-06
17010,6.21642725178322E-06
17040,6.21642725178322E-06
17070,6.21642725178322E-06
17100,6.21642725178322E-06
17130,6.21642725178322E-06
17160,6.21642725178322E-06
17190,6.21642725178322E-06
17220,6.21642725178322E-06
17250,6.21642725178322E-06
17280,6.21642725178322E-06
17310,6.21642725178322E-06
17340,6.21642725178322E-06
17370,6.21642725178322E-06
17400,6.21642725178322E-06
17430,7.79885747369971E-06
17460,7.22663938231002E-06
17490,6.92378669088341E-06
17520,6.94345215076041E-06
17550,6.9722004740175E-06
17580,6.98569542209335E-06
17610,6.99095009806476E-06
17640,6.9940237964909E-06
17670,6.99581734512852E-06
17700,6.99682480397527E-06
17730,6.99766328864891E-06
17760,6.99817142098745E-06
17790,6.99846737854661E-06
17820,6.99864830435349E-06
17850,6.99876346858749E-06
17880,6.99883932642564E-06
17910,6.99889078262178E-06
17940,6.99892658706241E-06
17970,6.99895189305702E-06
18000,6.99897043419688E-06
18030,7.67111723135295E-06
18060,8.14046109189758E-06
18090,8.39992242213887E-06
18120,8.47344334724799E-06
18150,8.4940749379693E-06
18180,8.50072796643574E-06
18210,8.50291090340843E-06
18240,8.50379086688745E-06
18270,8.50419797211654E-06
18300,8.50440497331242E-06
18330,8.50451588558782E-06
18360,8.50457526033828E-06
18390,8.50460832934961E-06
18420,8.50462782980069E-06
18450,8.50463967289924E-06
18480,8.50464759607483E-06
18510,8.50465265971715E-06
18540,8.50465648011448E-06
18570,8.50465927703735E-06
18600,8.50466105914978E-06
18630,1.02302807108828E-05
18660,1.01302437208298E-05
18690,9.17391190048435E-06
18720,9.02030151678852E-06
18750,8.98888024175386E-06
18780,8.9835628521821E-06
18810,8.98237374004698E-06
18840,8.98199829571467E-06
18870,8.98173995849367E-06
18900,8.98173995849367E-06
18930,8.98173995849367E-06
18960,8.98173995849367E-06
18990,8.98173995849367E-06
19020,8.98173995849367E-06
19050,8.98173995849367E-06
19080,8.98173995849367E-06
19110,8.98173995849367E-06
19140,8.98173995849367E-06
19170,8.98173995849367E-06
19200,8.98173995849367E-06
19230,6.70007952490427E-06
19260,4.97350433119379E-06
19290,4.80876078955493E-06
19320,4.8095425504261E-06
19350,4.81224208565027E-06
19380,4.81380644530341E-06
19410,4.81491927164478E-06
19440,4.8155457266605E-06
19470,4.81605290789271E-06
19500,4.81631245117325E-06
19530,4.8164520427436E-06
19560,4.81653203376383E-06
19590,4.81658030531096E-06
19620,4.81661076520343E-06
19650,4.81663076249041E-06
19680,4.81664439633816E-06
19710,4.81665408620401E-06
19740,4.8166613111427E-06
19770,4.8166668593086E-06
19800,4.81667109812858E-06
19830,4.61986776614068E-06
19860,4.60418724805841E-06
19890,4.53583647306826E-06
19920,4.50955499104337E-06
19950,4.50283249188497E-06
19980,4.5019701898174E-06
20010,4.50173089547341E-06
20040,4.50120606862111E-06
20070,4.50111643408955E-06
20100,4.50110325211893E-06
20130,4.50109856043332E-06
20160,4.50109707922778E-06
20190,4.50109678347911E-06
20220,4.50109678347911E-06
20250,4.50109678347911E-06
20280,4.50109678347911E-06
20310,4.50109678347911E-06
20340,4.50109678347911E-06
20370,4.50109678347911E-06
20400,4.50109678347911E-06
20430,5.18105859983127E-06
20460,5.93870574184727E-06
20490,6.04622957114981E-06
20520,6.05681830556447E-06
20550,6.05394811331688E-06
20580,6.05394811331688E-06
20610,6.05394811331688E-06
20640,6.05394811331688E-06
20670,6.05394811331688E-06
20700,6.05394811331688E-06
20730,6.05394811331688E-06
20760,6.05394811331688E-06
20790,6.05394811331688E-06
20820,6.05394811331688E-06
20850,6.05394811331688E-06
20880,6.05394811331688E-06
20910,6.05394811331688E-06
20940,6.05394811331688E-06
20970,6.05394811331688E-06
21000,6.05394811331688E-06
21030,6.48565758155711E-06
21060,6.08631740840069E-06
21090,5.94445506896475E-06
21120,5.93458742844076E-06
21150,5.93336838237643E-06
21180,5.93297267029144E-06
21210,5.93292043239782E-06
21240,5.93295058660614E-06
21270,5.9329519809945E-06
21300,5.9329519809945E-06
21330,5.9329519809945E-06
21360,5.9329519809945E-06
21390,5.9329519809945E-06
21420,5.9329519809945E-06
21450,5.9329519809945E-06
21480,5.9329519809945E-06
21510,5.9329519809945E-06
21540,5.9329519809945E-06
21570,5.9329519809945E-06
21600,5.9329519809945E-06
21630,5.96670033663578E-06
21660,4.50914378568701E-06
21690,5.20626451116016E-06
21720,5.47939407948925E-06
21750,5.55226821311719E-06
21780,5.5686662204964E-06
21810,5.57315246742441E-06
21840,5.57460507637148E-06
21870,5.57497818029085E-06
21900,5.57497818029085E-06
21930,5.57497818029085E-06
21960,5.57497818029085E-06
21990,5.57497818029085E-06
22020,5.57497818029085E-06
22050,5.57497818029085E-06
22080,5.57497818029085E-06
22110,5.57497818029085E-06
22140,5.57497818029085E-06
22170,5.57497818029085E-06
22200,5.57497818029085E-06
22230,9.02162261466095E-06
22260,1.28724416177876E-05
22290,1.3061115745588E-05
22320,1.29703658129074E-05
22350,1.2950029067845E-05
22380,1.29445410691425E-05
22410,1.29430787708949E-05
22440,1.29425231591317E-05
22470,1.29420914145662E-05
22500,1.29420914145662E-05
22530,1.29420914145662E-05
22560,1.29420914145662E-05
22590,1.29420914145662E-05
22620,1.29420914145662E-05
22650,1.29420914145662E-05
22680,1.29420914145662E-05
22710,1.29420914145662E-05
