空气伽马剂量率 间隔30s  (mSv/h)
计算时间(s)
30,0
60,6.90930181239488E-07
90,1.28950936010012E-06
120,1.50597933920051E-06
150,1.50597933920051E-06
180,1.50597933920051E-06
210,1.50597933920051E-06
240,1.50597933920051E-06
270,1.50597933920051E-06
300,1.50597933920051E-06
330,1.50597933920051E-06
360,1.50597933920051E-06
390,1.50597933920051E-06
420,1.50597933920051E-06
450,1.50597933920051E-06
480,1.50597933920051E-06
510,1.50597933920051E-06
540,1.50597933920051E-06
570,1.50597933920051E-06
600,1.50597933920051E-06
630,1.3606369497561E-06
660,1.21665065215474E-06
690,1.10979480781823E-06
720,1.00474111489929E-06
750,1.00474111489929E-06
780,1.00474111489929E-06
810,1.00474111489929E-06
840,1.00474111489929E-06
870,1.00474111489929E-06
900,1.00474111489929E-06
930,1.00474111489929E-06
960,1.00474111489929E-06
990,1.00474111489929E-06
1020,1.00474111489929E-06
1050,1.00474111489929E-06
1080,1.00474111489929E-06
1110,1.00474111489929E-06
1140,1.00474111489929E-06
1170,1.00474111489929E-06
1200,1.00474111489929E-06
1230,1.36120514943957E-06
1260,1.67585103423825E-06
1290,1.84121186690122E-06
1320,1.86995575812221E-06
1350,1.86995575812221E-06
1380,1.86995575812221E-06
1410,1.86995575812221E-06
1440,1.86995575812221E-06
1470,1.86995575812221E-06
1500,1.86995575812221E-06
1530,1.86995575812221E-06
1560,1.86995575812221E-06
1590,1.86995575812221E-06
1620,1.86995575812221E-06
1650,1.86995575812221E-06
1680,1.86995575812221E-06
1710,1.86995575812221E-06
1740,1.86995575812221E-06
1770,1.86995575812221E-06
1800,1.86995575812221E-06
1830,1.75232762447016E-06
1860,1.63973935906639E-06
1890,1.57626655837012E-06
1920,1.44147643141474E-06
1950,1.44147643141474E-06
1980,1.44147643141474E-06
2010,1.44147643141474E-06
2040,1.44147643141474E-06
2070,1.44147643141474E-06
2100,1.44147643141474E-06
2130,1.44147643141474E-06
2160,1.44147643141474E-06
2190,1.44147643141474E-06
2220,1.44147643141474E-06
2250,1.44147643141474E-06
2280,1.44147643141474E-06
2310,1.44147643141474E-06
2340,1.44147643141474E-06
2370,1.44147643141474E-06
2400,1.44147643141474E-06
2430,1.870720332231E-06
2460,1.96922658814855E-06
2490,1.9975178153073E-06
2520,2.00529112033382E-06
2550,2.01063725750606E-06
2580,2.01456620897E-06
2610,2.0163619436851E-06
2640,2.01786798167255E-06
2670,2.01872153028045E-06
2700,2.01916155592096E-06
2730,2.01942744219986E-06
2760,2.01958437049793E-06
2790,2.01968141745972E-06
2820,2.01974383188215E-06
2850,2.01978187307174E-06
2880,2.01981102556949E-06
2910,2.01983151473987E-06
2940,2.01984623074212E-06
2970,2.0198570044681E-06
3000,2.01986509565878E-06
3030,2.44560555488365E-06
3060,3.15546873463012E-06
3090,3.34727527972962E-06
3120,3.35705673489316E-06
3150,3.36034760258398E-06
3180,3.34713605525014E-06
3210,3.34713605525014E-06
3240,3.34713605525014E-06
3270,3.34713605525014E-06
3300,3.34713605525014E-06
3330,3.34713605525014E-06
3360,3.34713605525014E-06
3390,3.34713605525014E-06
3420,3.34713605525014E-06
3450,3.34713605525014E-06
3480,3.34713605525014E-06
3510,3.34713605525014E-06
3540,3.34713605525014E-06
3570,3.34713605525014E-06
3600,3.34713605525014E-06
3630,4.04476147232624E-06
3660,4.06120369550121E-06
3690,4.00699651109702E-06
3720,4.03649991433632E-06
3750,4.05138911729467E-06
3780,4.05784453499581E-06
3810,4.06159474347687E-06
3840,4.06347228563471E-06
3870,4.06472525219232E-06
3900,4.06558615607623E-06
3930,4.06607036239001E-06
3960,4.06634953019951E-06
3990,4.06651649865514E-06
4020,4.06662105002239E-06
4050,4.06668896359265E-06
4080,4.06673448248674E-06
4110,4.06676582850231E-06
4140,4.06678793031915E-06
4170,4.06680386941692E-06
4200,4.06681564994524E-06
4230,3.82301132977377E-06
4260,3.07964412855744E-06
4290,2.71044302443665E-06
4320,2.66882877450518E-06
4350,2.64342389193187E-06
4380,2.6410433662095E-06
4410,2.64096572797638E-06
4440,2.6409566640256E-06
4470,2.64095618493381E-06
4500,2.64095618493381E-06
4530,2.64095618493381E-06
4560,2.64095618493381E-06
4590,2.64095618493381E-06
4620,2.64095618493381E-06
4650,2.64095618493381E-06
4680,2.64095618493381E-06
4710,2.64095618493381E-06
4740,2.64095618493381E-06
4770,2.64095618493381E-06
4800,2.64095618493381E-06
4830,3.29792747934932E-06
4860,3.87911319838676E-06
4890,4.3494657631108E-06
4920,4.44418248282048E-06
4950,4.46553669499714E-06
4980,4.46958657546835E-06
5010,4.4714406627595E-06
5040,4.4716606375399E-06
5070,4.4720671948373E-06
5100,4.4720671948373E-06
5130,4.4720671948373E-06
5160,4.4720671948373E-06
5190,4.4720671948373E-06
5220,4.4720671948373E-06
5250,4.4720671948373E-06
5280,4.4720671948373E-06
5310,4.4720671948373E-06
5340,4.4720671948373E-06
5370,4.4720671948373E-06
5400,4.4720671948373E-06
5430,3.54137144757896E-06
5460,2.73372621971794E-06
5490,2.48339791991928E-06
5520,2.4431409760402E-06
5550,2.43712459738554E-06
5580,2.4346458575134E-06
5610,2.4346458575134E-06
5640,2.4346458575134E-06
5670,2.4346458575134E-06
5700,2.4346458575134E-06
5730,2.4346458575134E-06
5760,2.4346458575134E-06
5790,2.4346458575134E-06
5820,2.4346458575134E-06
5850,2.4346458575134E-06
5880,2.4346458575134E-06
5910,2.4346458575134E-06
5940,2.4346458575134E-06
5970,2.4346458575134E-06
6000,2.4346458575134E-06
6030,2.75449720264867E-06
6060,3.02638556317543E-06
6090,3.33311553575104E-06
6120,3.41670003133212E-06
6150,3.43179816032804E-06
6180,3.43512366996429E-06
6210,3.43589120835112E-06
6240,3.43589120835112E-06
6270,3.43589120835112E-06
6300,3.43589120835112E-06
6330,3.43589120835112E-06
6360,3.43589120835112E-06
6390,3.43589120835112E-06
6420,3.43589120835112E-06
6450,3.43589120835112E-06
6480,3.43589120835112E-06
6510,3.43589120835112E-06
6540,3.43589120835112E-06
6570,3.43589120835112E-06
6600,3.43589120835112E-06
6630,4.09489178330286E-06
6660,5.00928518686651E-06
6690,5.19783649812668E-06
6720,5.19085834240868E-06
6750,5.19150208227849E-06
6780,5.19080454757703E-06
6810,5.19080454757703E-06
6840,5.19080454757703E-06
6870,5.19080454757703E-06
6900,5.19080454757703E-06
6930,5.19080454757703E-06
6960,5.19080454757703E-06
6990,5.19080454757703E-06
7020,5.19080454757703E-06
7050,5.19080454757703E-06
7080,5.19080454757703E-06
7110,5.19080454757703E-06
7140,5.19080454757703E-06
7170,5.19080454757703E-06
7200,5.19080454757703E-06
7230,4.67499233662454E-06
7260,4.16242936645773E-06
7290,4.07070745101941E-06
7320,4.06546711753546E-06
7350,4.05464931631313E-06
7380,4.05464931631313E-06
7410,4.05464931631313E-06
7440,4.05464931631313E-06
7470,4.05464931631313E-06
7500,4.05464931631313E-06
7530,4.05464931631313E-06
7560,4.05464931631313E-06
7590,4.05464931631313E-06
7620,4.05464931631313E-06
7650,4.05464931631313E-06
7680,4.05464931631313E-06
7710,4.05464931631313E-06
7740,4.05464931631313E-06
7770,4.05464931631313E-06
7800,4.05464931631313E-06
7830,3.58818782641083E-06
7860,3.20195137851233E-06
7890,3.1163509610136E-06
7920,3.12042141476493E-06
7950,3.12265950254895E-06
7980,3.12265950254895E-06
8010,3.12265950254895E-06
8040,3.12265950254895E-06
8070,3.12265950254895E-06
8100,3.12265950254895E-06
8130,3.12265950254895E-06
8160,3.12265950254895E-06
8190,3.12265950254895E-06
8220,3.12265950254895E-06
8250,3.12265950254895E-06
8280,3.12265950254895E-06
8310,3.12265950254895E-06
8340,3.12265950254895E-06
8370,3.12265950254895E-06
8400,3.12265950254895E-06
8430,3.73238156160892E-06
8460,4.44481933979857E-06
8490,4.91967653026357E-06
8520,5.00884960373869E-06
8550,5.03580953018531E-06
8580,5.04399515695648E-06
8610,5.04543775436953E-06
8640,5.04671812104897E-06
8670,5.04680390203357E-06
8700,5.04721156468267E-06
8730,5.04721156468267E-06
8760,5.04721156468267E-06
8790,5.04721156468267E-06
8820,5.04721156468267E-06
8850,5.04721156468267E-06
8880,5.04721156468267E-06
8910,5.04721156468267E-06
8940,5.04721156468267E-06
8970,5.04721156468267E-06
9000,5.04721156468267E-06
9030,7.27919420899912E-06
9060,1.05746848408396E-05
9090,1.15220228349433E-05
9120,1.14962558151386E-05
9150,1.14876594871081E-05
9180,1.14843680980209E-05
9210,1.14819615598039E-05
9240,1.14819615598039E-05
9270,1.14819615598039E-05
9300,1.14819615598039E-05
9330,1.14819615598039E-05
9360,1.14819615598039E-05
9390,1.14819615598039E-05
9420,1.14819615598039E-05
9450,1.14819615598039E-05
9480,1.14819615598039E-05
9510,1.14819615598039E-05
9540,1.14819615598039E-05
9570,1.14819615598039E-05
9600,1.14819615598039E-05
9630,8.79964575755427E-06
9660,6.67550435923395E-06
9690,5.96144850179017E-06
9720,5.88957782096006E-06
9750,5.88329302733951E-06
9780,5.88254509426139E-06
9810,5.88254229168308E-06
9840,5.88247588679035E-06
9870,5.88253924682524E-06
9900,5.8825418659386E-06
9930,5.882546455445E-06
9960,5.882546455445E-06
9990,5.882546455445E-06
10020,5.882546455445E-06
10050,5.882546455445E-06
10080,5.882546455445E-06
10110,5.882546455445E-06
10140,5.882546455445E-06
10170,5.882546455445E-06
10200,5.882546455445E-06
10230,8.1214213753407E-06
10260,1.0429871452091E-05
10290,1.05718448243694E-05
10320,1.05504546640225E-05
10350,1.05441045533646E-05
10380,1.05424350741559E-05
10410,1.05420164471185E-05
10440,1.05419086399007E-05
10470,1.05414647509047E-05
10500,1.05414647509047E-05
10530,1.05414647509047E-05
10560,1.05414647509047E-05
10590,1.05414647509047E-05
10620,1.05414647509047E-05
10650,1.05414647509047E-05
10680,1.05414647509047E-05
10710,1.05414647509047E-05
10740,1.05414647509047E-05
10770,1.05414647509047E-05
10800,1.05414647509047E-05
10830,9.38731756285554E-06
10860,7.14819954090935E-06
10890,6.6126244837188E-06
10920,6.55716547328085E-06
10950,6.55144598814149E-06
10980,6.54975803660703E-06
11010,6.54952506122391E-06
11040,6.54952506122391E-06
11070,6.54952506122391E-06
11100,6.54952506122391E-06
11130,6.54952506122391E-06
11160,6.54952506122391E-06
11190,6.54952506122391E-06
11220,6.54952506122391E-06
11250,6.54952506122391E-06
11280,6.54952506122391E-06
11310,6.54952506122391E-06
11340,6.54952506122391E-06
11370,6.54952506122391E-06
11400,6.54952506122391E-06
11430,5.82911774074887E-06
11460,5.22937723603736E-06
11490,5.23041749195216E-06
11520,5.23800960794668E-06
11550,5.24419526818051E-06
11580,5.24559860411463E-06
11610,5.24587000229509E-06
11640,5.24596207527819E-06
11670,5.24607742291064E-06
11700,5.24609540953474E-06
11730,5.24609540953474E-06
11760,5.24609540953474E-06
11790,5.24609540953474E-06
11820,5.24609540953474E-06
11850,5.24609540953474E-06
11880,5.24609540953474E-06
11910,5.24609540953474E-06
11940,5.24609540953474E-06
11970,5.24609540953474E-06
12000,5.24609540953474E-06
12030,5.6731625648803E-06
12060,4.85171859644566E-06
12090,4.65907332912328E-06
12120,4.64059562483588E-06
12150,4.64088928908099E-06
12180,4.64178042736122E-06
12210,4.642901642331E-06
12240,4.64354614265877E-06
12270,4.64418198495294E-06
12300,4.6445551064207E-06
12330,4.64476051424756E-06
12360,4.64487899308043E-06
12390,4.644950879589E-06
12420,4.64499639337737E-06
12450,4.64502628371609E-06
12480,4.64504656394985E-06
12510,4.64506075601817E-06
12540,4.64507100989899E-06
12570,4.64507868469579E-06
12600,4.64508469566238E-06
12630,5.11726756373117E-06
12660,5.61214794566107E-06
12690,5.73905940463811E-06
12720,5.76520685113404E-06
12750,5.7720146497285E-06
12780,5.77386455696596E-06
12810,5.7745204749576E-06
12840,5.77479913416573E-06
12870,5.77493413662655E-06
12900,5.77500796800202E-06
12930,5.77504386678814E-06
12960,5.77506307546065E-06
12990,5.77507417523934E-06
13020,5.77508093078849E-06
13050,5.77508516175084E-06
13080,5.77508804998131E-06
13110,5.7750900534221E-06
13140,5.7750914058899E-06
13170,5.77509247471673E-06
13200,5.77509328708601E-06
13230,5.80231469267565E-06
13260,5.99987216750271E-06
13290,5.66843563144372E-06
13320,5.60271830232666E-06
13350,5.59168657745798E-06
13380,5.58980281899209E-06
13410,5.58934897784542E-06
13440,5.58921464244758E-06
13470,5.58903517049939E-06
13500,5.58903517049939E-06
13530,5.58903517049939E-06
13560,5.58903517049939E-06
13590,5.58903517049939E-06
13620,5.58903517049939E-06
13650,5.58903517049939E-06
13680,5.58903517049939E-06
13710,5.58903517049939E-06
13740,5.58903517049939E-06
13770,5.58903517049939E-06
13800,5.58903517049939E-06
13830,5.35887029065734E-06
13860,4.35538884428116E-06
13890,4.29533837391679E-06
13920,4.30178643822379E-06
13950,4.3044023880265E-06
13980,4.30628189351041E-06
14010,4.30713784038866E-06
14040,4.30787698773097E-06
14070,4.30827243438897E-06
14100,4.30847095690432E-06
14130,4.30857866487459E-06
14160,4.30864083475735E-06
14190,4.30867858799646E-06
14220,4.30870256500163E-06
14250,4.30871842631347E-06
14280,4.30872935490169E-06
14310,4.3087372450214E-06
14340,4.30874299686559E-06
14370,4.3087475723206E-06
14400,4.30875108970085E-06
14430,6.91486671452586E-06
14460,1.15044487158456E-05
14490,1.48315996257942E-05
14520,1.50894042098432E-05
14550,1.51193505998459E-05
14580,1.51249650481865E-05
14610,1.5119701452175E-05
14640,1.51196508893587E-05
14670,1.51196508893587E-05
14700,1.51196508893587E-05
14730,1.51196508893587E-05
14760,1.51196508893587E-05
14790,1.51196508893587E-05
14820,1.51196508893587E-05
14850,1.51196508893587E-05
14880,1.51196508893587E-05
14910,1.51196508893587E-05
14940,1.51196508893587E-05
14970,1.51196508893587E-05
15000,1.51196508893587E-05
15030,1.24905944123564E-05
15060,1.02229376969134E-05
15090,9.87439954677655E-06
15120,9.98083298511421E-06
15150,1.00079885266744E-05
15180,1.00163975228485E-05
15210,1.00195544288593E-05
15240,1.00200777373256E-05
15270,1.00206583992823E-05
15300,1.0020703321479E-05
15330,1.0020703321479E-05
15360,1.0020703321479E-05
15390,1.0020703321479E-05
15420,1.0020703321479E-05
15450,1.0020703321479E-05
15480,1.0020703321479E-05
15510,1.0020703321479E-05
15540,1.0020703321479E-05
15570,1.0020703321479E-05
15600,1.0020703321479E-05
15630,1.18351323577965E-05
15660,1.31791028979617E-05
15690,1.24392669033232E-05
15720,1.2304979352922E-05
15750,1.22793751720382E-05
15780,1.22748059113539E-05
15810,1.22737300723707E-05
15840,1.22723172989722E-05
15870,1.22723172989722E-05
15900,1.22723172989722E-05
15930,1.22723172989722E-05
15960,1.22723172989722E-05
15990,1.22723172989722E-05
16020,1.22723172989722E-05
16050,1.22723172989722E-05
16080,1.22723172989722E-05
16110,1.22723172989722E-05
16140,1.22723172989722E-05
16170,1.22723172989722E-05
16200,1.22723172989722E-05
16230,1.1918056136803E-05
16260,1.11756937055033E-05
16290,1.30280754361408E-05
16320,1.3526770170907E-05
16350,1.36111771465596E-05
16380,1.36325998680097E-05
16410,1.3638964950491E-05
16440,1.36405082756498E-05
16470,1.36408845124236E-05
16500,1.36408845124236E-05
16530,1.36408845124236E-05
16560,1.36408845124236E-05
16590,1.36408845124236E-05
16620,1.36408845124236E-05
16650,1.36408845124236E-05
16680,1.36408845124236E-05
16710,1.36408845124236E-05
16740,1.36408845124236E-05
16770,1.36408845124236E-05
16800,1.36408845124236E-05
16830,1.008278963442E-05
16860,5.86182964692682E-06
16890,4.12493992608256E-06
16920,3.88982605056051E-06
16950,3.85903129711374E-06
16980,3.83514938021885E-06
17010,3.83514938021885E-06
17040,3.83514938021885E-06
17070,3.83514938021885E-06
17100,3.83514938021885E-06
17130,3.83514938021885E-06
17160,3.83514938021885E-06
17190,3.83514938021885E-06
17220,3.83514938021885E-06
17250,3.83514938021885E-06
17280,3.83514938021885E-06
17310,3.83514938021885E-06
17340,3.83514938021885E-06
17370,3.83514938021885E-06
17400,3.83514938021885E-06
17430,5.6068597778703E-06
17460,5.80129468112772E-06
17490,5.73461932061258E-06
17520,5.77802174195429E-06
17550,5.81198324383867E-06
17580,5.82336614274301E-06
17610,5.82858828111521E-06
17640,5.83162408824459E-06
17670,5.83316148230784E-06
17700,5.83425209559237E-06
17730,5.8350056588289E-06
17760,5.83544676206513E-06
17790,5.83570662907968E-06
17820,5.83586700913573E-06
17850,5.83596992072629E-06
17880,5.83603817847579E-06
17910,5.83608475881166E-06
17940,5.83611734236019E-06
17970,5.83614063801963E-06
18000,5.83615765381693E-06
18030,6.80473529673817E-06
18060,7.62364106754874E-06
18090,7.95387180092643E-06
18120,8.03506433278559E-06
18150,8.05769580060359E-06
18180,8.06498229543641E-06
18210,8.06735423691024E-06
18240,8.06830305273964E-06
18270,8.06873982958643E-06
18300,8.0689613413944E-06
18330,8.06908119531955E-06
18360,8.06914752617584E-06
18390,8.06918389175623E-06
18420,8.06920538993925E-06
18450,8.06921841611334E-06
18480,8.06922705153445E-06
18510,8.06923287943172E-06
18540,8.06923668112258E-06
18570,8.06923966646467E-06
18600,8.06924158604814E-06
18630,8.61484653925737E-06
18660,7.39695174587327E-06
18690,6.52814337847345E-06
18720,6.38809564556874E-06
18750,6.36290399686291E-06
18780,6.35843437190609E-06
18810,6.35740330169213E-06
18840,6.35709138516179E-06
18870,6.35684029952677E-06
18900,6.35684029952677E-06
18930,6.35684029952677E-06
18960,6.35684029952677E-06
18990,6.35684029952677E-06
19020,6.35684029952677E-06
19050,6.35684029952677E-06
19080,6.35684029952677E-06
19110,6.35684029952677E-06
19140,6.35684029952677E-06
19170,6.35684029952677E-06
19200,6.35684029952677E-06
19230,5.24261097013702E-06
19260,4.02275921682966E-06
19290,3.91681765209927E-06
19320,3.91647391585621E-06
19350,3.91829384036535E-06
19380,3.91999495972649E-06
19410,3.92089221831874E-06
19440,3.92163622210228E-06
19470,3.92205876262356E-06
19500,3.92227957298715E-06
19530,3.92240021485315E-06
19560,3.92247022859311E-06
19590,3.92251292329749E-06
19620,3.9225401047516E-06
19650,3.92255808868273E-06
19680,3.92257043579728E-06
19710,3.92257926928024E-06
19740,3.92258589868037E-06
19770,3.92259102007779E-06
19800,3.92259495148482E-06
19830,3.27661062606103E-06
19860,2.71658657828228E-06
19890,2.67343646777184E-06
19920,2.64038549022342E-06
19950,2.63548359636208E-06
19980,2.63483559368922E-06
20010,2.63368705327191E-06
20040,2.63320838961875E-06
20070,2.63316769335436E-06
20100,2.63315849453357E-06
20130,2.63315565928637E-06
20160,2.63315467782486E-06
20190,2.63315467782486E-06
20220,2.63315467782486E-06
20250,2.63315467782486E-06
20280,2.63315467782486E-06
20310,2.63315467782486E-06
20340,2.63315467782486E-06
20370,2.63315467782486E-06
20400,2.63315467782486E-06
20430,2.96705286783242E-06
20460,3.36715274019592E-06
20490,3.40539283518813E-06
20520,3.41509874729534E-06
20550,3.41576430283366E-06
20580,3.41576430283366E-06
20610,3.41576430283366E-06
20640,3.41576430283366E-06
20670,3.41576430283366E-06
20700,3.41576430283366E-06
20730,3.41576430283366E-06
20760,3.41576430283366E-06
20790,3.41576430283366E-06
20820,3.41576430283366E-06
20850,3.41576430283366E-06
20880,3.41576430283366E-06
20910,3.41576430283366E-06
20940,3.41576430283366E-06
20970,3.41576430283366E-06
21000,3.41576430283366E-06
21030,3.86425231064479E-06
21060,3.9476080803242E-06
21090,3.86122909864522E-06
21120,3.85537490059024E-06
21150,3.85438215748524E-06
21180,3.85404843031122E-06
21210,3.85414741203253E-06
21240,3.85414953932693E-06
21270,3.85414953932693E-06
21300,3.85414953932693E-06
21330,3.85414953932693E-06
21360,3.85414953932693E-06
21390,3.85414953932693E-06
21420,3.85414953932693E-06
21450,3.85414953932693E-06
21480,3.85414953932693E-06
21510,3.85414953932693E-06
21540,3.85414953932693E-06
21570,3.85414953932693E-06
21600,3.85414953932693E-06
21630,3.69842971165652E-06
21660,2.95063490483539E-06
21690,3.29731571018367E-06
21720,3.46090112417066E-06
21750,3.50537927644716E-06
21780,3.51651637824037E-06
21810,3.51966844952796E-06
21840,3.52058449532023E-06
21870,3.52058449532023E-06
21900,3.52058449532023E-06
21930,3.52058449532023E-06
21960,3.52058449532023E-06
21990,3.52058449532023E-06
22020,3.52058449532023E-06
22050,3.52058449532023E-06
22080,3.52058449532023E-06
22110,3.52058449532023E-06
22140,3.52058449532023E-06
22170,3.52058449532023E-06
22200,3.52058449532023E-06
22230,6.20554556764851E-06
22260,1.02482465437744E-05
22290,1.08408401979788E-05
22320,1.08270071122836E-05
22350,1.08146316104177E-05
22380,1.08113000515039E-05
22410,1.0810277837214E-05
22440,1.08098408245721E-05
22470,1.0809467317741E-05
22500,1.0809467317741E-05
22530,1.0809467317741E-05
22560,1.0809467317741E-05
22590,1.0809467317741E-05
22620,1.0809467317741E-05
22650,1.0809467317741E-05
22680,1.0809467317741E-05
22710,1.0809467317741E-05
22740,1.0809467317741E-05
