空气伽马剂量率 间隔30s  (mSv/h)
计算时间(s)
30,0
60,4.92851811357644E-07
90,9.50597470432966E-07
120,1.13548804527272E-06
150,1.19313381329962E-06
180,1.21182708124142E-06
210,1.21182708124142E-06
240,1.21182708124142E-06
270,1.21182708124142E-06
300,1.21182708124142E-06
330,1.21182708124142E-06
360,1.21182708124142E-06
390,1.21182708124142E-06
420,1.21182708124142E-06
450,1.21182708124142E-06
480,1.21182708124142E-06
510,1.21182708124142E-06
540,1.21182708124142E-06
570,1.21182708124142E-06
600,1.21182708124142E-06
630,1.23345839156179E-06
660,1.25290073948005E-06
690,1.18361735426672E-06
720,1.16008111924331E-06
750,1.15346584605418E-06
780,1.1518254274811E-06
810,1.15153237782161E-06
840,1.15153237782161E-06
870,1.15153237782161E-06
900,1.15153237782161E-06
930,1.15153237782161E-06
960,1.15153237782161E-06
990,1.15153237782161E-06
1020,1.15153237782161E-06
1050,1.15153237782161E-06
1080,1.15153237782161E-06
1110,1.15153237782161E-06
1140,1.15153237782161E-06
1170,1.15153237782161E-06
1200,1.15153237782161E-06
1230,1.02222350314573E-06
1260,8.82287609758455E-07
1290,4.54962227019128E-07
1320,4.54962227019128E-07
1350,4.54962227019128E-07
1380,4.54962227019128E-07
1410,4.54962227019128E-07
1440,4.54962227019128E-07
1470,4.54962227019128E-07
1500,4.54962227019128E-07
1530,4.54962227019128E-07
1560,4.54962227019128E-07
1590,4.54962227019128E-07
1620,4.54962227019128E-07
1650,4.54962227019128E-07
1680,4.54962227019128E-07
1710,4.54962227019128E-07
1740,4.54962227019128E-07
1770,4.54962227019128E-07
1800,4.54962227019128E-07
1830,4.71325201874652E-07
1860,4.88717918191018E-07
1890,4.88717918191018E-07
1920,4.88717918191018E-07
1950,4.88717918191018E-07
1980,4.88717918191018E-07
2010,4.88717918191018E-07
2040,4.88717918191018E-07
2070,4.88717918191018E-07
2100,4.88717918191018E-07
2130,4.88717918191018E-07
2160,4.88717918191018E-07
2190,4.88717918191018E-07
2220,4.88717918191018E-07
2250,4.88717918191018E-07
2280,4.88717918191018E-07
2310,4.88717918191018E-07
2340,4.88717918191018E-07
2370,4.88717918191018E-07
2400,4.88717918191018E-07
2430,1.02825146568509E-06
2460,1.2239472594017E-06
2490,1.26799972065619E-06
2520,1.28198524207854E-06
2550,1.28875927033502E-06
2580,1.29237713657797E-06
2610,1.29450594646788E-06
2640,1.29612233282402E-06
2670,1.29688604079912E-06
2700,1.2972840404549E-06
2730,1.29752656232085E-06
2760,1.29767055266659E-06
2790,1.29775996010796E-06
2820,1.29781761635448E-06
2850,1.29785601920382E-06
2880,1.2978817630716E-06
2910,1.29790031555462E-06
2940,1.29791362647309E-06
2970,1.29792339283422E-06
3000,1.29793082482642E-06
3030,8.54572551370457E-07
3060,2.93242959581513E-07
3090,7.61716852336966E-08
3120,7.45569045617998E-09
3150,9.68394896072594E-10
3180,1.7054746506612E-10
3210,2.77694192400493E-11
3240,6.06924550952148E-12
3270,0
3300,0
3330,0
3360,0
3390,0
3420,0
3450,0
3480,0
3510,0
3540,0
3570,0
3600,0
3630,4.32290021267874E-07
3660,6.06006569228301E-07
3690,6.62711816361602E-07
3720,6.80297597854527E-07
3750,6.88278590018663E-07
3780,6.93522317583267E-07
3810,6.96413646860185E-07
3840,6.97721518584613E-07
3870,6.98351946621425E-07
3900,6.98685763950648E-07
3930,6.98894817484398E-07
3960,6.99025912552649E-07
3990,6.99108772073243E-07
4020,6.99163464450818E-07
4050,6.99200621559979E-07
4080,6.99226509292475E-07
4110,6.9924494945261E-07
4140,6.99258344786802E-07
4170,6.99268250738743E-07
4200,6.99275945183623E-07
4230,5.04141545233751E-07
4260,1.70382013132396E-07
4290,5.33195214943575E-09
4320,6.64304353365986E-10
4350,4.95888731380845E-11
4380,6.06675386937057E-12
4410,0
4440,0
4470,0
4500,0
4530,0
4560,0
4590,0
4620,0
4650,0
4680,0
4710,0
4740,0
4770,0
4800,0
4830,0
4860,2.38367677745961E-07
4890,2.38367677745961E-07
4920,2.38367677745961E-07
4950,2.38367677745961E-07
4980,2.38367677745961E-07
5010,2.38367677745961E-07
5040,2.38367677745961E-07
5070,2.38367677745961E-07
5100,2.38367677745961E-07
5130,2.38367677745961E-07
5160,2.38367677745961E-07
5190,2.38367677745961E-07
5220,2.38367677745961E-07
5250,2.38367677745961E-07
5280,2.38367677745961E-07
5310,2.38367677745961E-07
5340,2.38367677745961E-07
5370,2.38367677745961E-07
5400,2.38367677745961E-07
5430,2.67100463660266E-07
5460,4.22730910543942E-07
5490,4.14802578607831E-07
5520,4.14802578607831E-07
5550,4.14802578607831E-07
5580,4.14802578607831E-07
5610,4.14802578607831E-07
5640,4.14802578607831E-07
5670,4.14802578607831E-07
5700,4.14802578607831E-07
5730,4.14802578607831E-07
5760,4.14802578607831E-07
5790,4.14802578607831E-07
5820,4.14802578607831E-07
5850,4.14802578607831E-07
5880,4.14802578607831E-07
5910,4.14802578607831E-07
5940,4.14802578607831E-07
5970,4.14802578607831E-07
6000,4.14802578607831E-07
6030,4.37894309230125E-07
6060,4.57135696036619E-07
6090,4.72260129343632E-07
6120,4.72260129343632E-07
6150,4.72260129343632E-07
6180,4.72260129343632E-07
6210,4.72260129343632E-07
6240,4.72260129343632E-07
6270,4.72260129343632E-07
6300,4.72260129343632E-07
6330,4.72260129343632E-07
6360,4.72260129343632E-07
6390,4.72260129343632E-07
6420,4.72260129343632E-07
6450,4.72260129343632E-07
6480,4.72260129343632E-07
6510,4.72260129343632E-07
6540,4.72260129343632E-07
6570,4.72260129343632E-07
6600,4.72260129343632E-07
6630,0
6660,0
6690,0
6720,0
6750,0
6780,0
6810,0
6840,0
6870,0
6900,0
6930,0
6960,0
6990,0
7020,0
7050,0
7080,0
7110,0
7140,0
7170,0
7200,0
7230,0
7260,0
7290,0
7320,0
7350,0
7380,0
7410,0
7440,0
7470,0
7500,0
7530,0
7560,0
7590,0
7620,0
7650,0
7680,0
7710,0
7740,0
7770,0
7800,0
7830,0
7860,0
7890,0
7920,0
7950,0
7980,0
8010,0
8040,0
8070,0
8100,0
8130,0
8160,0
8190,0
8220,0
8250,0
8280,0
8310,0
8340,0
8370,0
8400,0
8430,0
8460,2.43605357073803E-07
8490,2.43605357073803E-07
8520,2.43605357073803E-07
8550,2.43605357073803E-07
8580,2.43605357073803E-07
8610,2.43605357073803E-07
8640,2.43605357073803E-07
8670,2.43605357073803E-07
8700,2.43605357073803E-07
8730,2.43605357073803E-07
8760,2.43605357073803E-07
8790,2.43605357073803E-07
8820,2.43605357073803E-07
8850,2.43605357073803E-07
8880,2.43605357073803E-07
8910,2.43605357073803E-07
8940,2.43605357073803E-07
8970,2.43605357073803E-07
9000,2.43605357073803E-07
9030,0
9060,0
9090,0
9120,0
9150,0
9180,0
9210,0
9240,0
9270,0
9300,0
9330,0
9360,0
9390,0
9420,0
9450,0
9480,0
9510,0
9540,0
9570,0
9600,0
9630,0
9660,0
9690,0
9720,0
9750,0
9780,0
9810,0
9840,0
9870,0
9900,0
9930,0
9960,0
9990,0
10020,0
10050,0
10080,0
10110,0
10140,0
10170,0
10200,0
10230,0
10260,0
10290,0
10320,0
10350,0
10380,0
10410,0
10440,0
10470,0
10500,0
10530,0
10560,0
10590,0
10620,0
10650,0
10680,0
10710,0
10740,0
10770,0
10800,0
10830,0
10860,0
10890,0
10920,0
10950,0
10980,0
11010,0
11040,0
11070,0
11100,0
11130,0
11160,0
11190,0
11220,0
11250,0
11280,0
11310,0
11340,0
11370,0
11400,0
11430,0
11460,0
11490,0
11520,0
11550,0
11580,0
11610,0
11640,0
11670,0
11700,0
11730,0
11760,0
11790,0
11820,0
11850,0
11880,0
11910,0
11940,0
11970,0
12000,0
12030,3.69690506080533E-07
12060,4.49494465796863E-07
12090,4.71436430850596E-07
12120,4.75956624117249E-07
12150,4.80004445269238E-07
12180,4.82165104437199E-07
12210,4.83084310363352E-07
12240,4.83519443568343E-07
12270,4.83741195674263E-07
12300,4.83879898834166E-07
12330,4.83964256370293E-07
12360,4.84017021789944E-07
12390,4.84051286451949E-07
12420,4.84074262845838E-07
12450,4.84090103346139E-07
12480,4.84101291683918E-07
12510,4.84109405267161E-07
12540,4.84115500448915E-07
12570,4.84120236048819E-07
12600,4.84124082846544E-07
12630,4.3366609001303E-07
12660,3.90812701203264E-07
12690,3.80818001808775E-07
12720,3.78504132039479E-07
12750,3.77430297966283E-07
12780,3.77151631849694E-07
12810,3.77071341140279E-07
12840,3.77045343207732E-07
12870,3.77036022669534E-07
12900,3.77032284206663E-07
12930,3.7703084115951E-07
12960,3.77030258009115E-07
12990,3.77030408430077E-07
13020,3.77030732844346E-07
13050,3.77030874398647E-07
13080,3.77031270343979E-07
13110,3.77031639974129E-07
13140,3.77031759828858E-07
13170,3.7703208070279E-07
13200,3.77032366392467E-07
13230,2.64196506931589E-07
13260,7.54407084781211E-08
13290,1.31239238775193E-09
13320,0
13350,0
13380,0
13410,0
13440,0
13470,0
13500,0
13530,0
13560,0
13590,0
13620,0
13650,0
13680,0
13710,0
13740,0
13770,0
13800,0
13830,1.94032701369043E-07
13860,2.64488616772381E-07
13890,2.88951726934235E-07
13920,2.97608396511089E-07
13950,3.00800426617301E-07
13980,3.0192137137344E-07
14010,3.02384020746481E-07
14040,3.02603361338316E-07
14070,3.02730359616453E-07
14100,3.02802987673132E-07
14130,3.02846767422946E-07
14160,3.02874342479115E-07
14190,3.02892366724184E-07
14220,3.02904526664057E-07
14250,3.02912956913147E-07
14280,3.02919010038413E-07
14310,3.02923609521158E-07
14340,3.02927284074012E-07
14370,3.02930185350252E-07
14400,3.02931755758593E-07
14430,2.00911139776513E-07
14460,7.6950294851417E-09
14490,1.38738112376884E-10
14520,0
14550,0
14580,0
14610,0
14640,0
14670,0
14700,0
14730,0
14760,0
14790,0
14820,0
14850,0
14880,0
14910,0
14940,0
14970,0
15000,0
15030,0
15060,0
15090,0
15120,0
15150,0
15180,0
15210,0
15240,0
15270,0
15300,0
15330,0
15360,0
15390,0
15420,0
15450,0
15480,0
15510,0
15540,0
15570,0
15600,0
15630,0
15660,0
15690,0
15720,0
15750,0
15780,0
15810,0
15840,0
15870,0
15900,0
15930,0
15960,0
15990,0
16020,0
16050,0
16080,0
16110,0
16140,0
16170,0
16200,0
16230,0
16260,0
16290,0
16320,0
16350,0
16380,0
16410,0
16440,0
16470,0
16500,0
16530,0
16560,0
16590,0
16620,0
16650,0
16680,0
16710,0
16740,0
16770,0
16800,0
16830,0
16860,0
16890,0
16920,0
16950,0
16980,0
17010,0
17040,0
17070,0
17100,0
17130,0
17160,0
17190,0
17220,0
17250,0
17280,0
17310,0
17340,0
17370,0
17400,0
17430,3.53558799604095E-07
17460,4.15847353499583E-07
17490,4.54598612304413E-07
17520,4.75727462473045E-07
17550,4.85168902155334E-07
17580,4.89953321019867E-07
17610,4.92210931334574E-07
17640,4.93343705904137E-07
17670,4.93903996690816E-07
17700,4.9421064415085E-07
17730,4.94397865782467E-07
17760,4.94524533697038E-07
17790,4.94607537115316E-07
17820,4.94663566662507E-07
17850,4.94702384219374E-07
17880,4.94729900084202E-07
17910,4.94749804389558E-07
17940,4.94764465199621E-07
17970,4.94775439991998E-07
18000,4.94783776024228E-07
18030,4.05208818123244E-07
18060,3.30669405191748E-07
18090,3.00034762238927E-07
18120,2.89216945092591E-07
18150,2.85733092130614E-07
18180,2.84537002208411E-07
18210,2.840920593381E-07
18240,2.83913288720698E-07
18270,2.83835250834005E-07
18300,2.83797316065398E-07
18330,2.83778381569749E-07
18360,2.83767607912921E-07
18390,2.83760660179691E-07
18420,2.83757421459211E-07
18450,2.83753525041037E-07
18480,2.83750426019855E-07
18510,2.83747729400758E-07
18540,2.83745188025549E-07
18570,2.83742636252751E-07
18600,2.83737283112312E-07
18630,2.39043667969195E-07
18660,1.43823497316345E-08
18690,0
18720,0
18750,0
18780,0
18810,0
18840,0
18870,0
18900,0
18930,0
18960,0
18990,0
19020,0
19050,0
19080,0
19110,0
19140,0
19170,0
19200,0
19230,2.30238055428543E-07
19260,3.68653822366017E-07
19290,4.04626869264739E-07
19320,4.14880200777328E-07
19350,4.19916573685879E-07
19380,4.21775802478786E-07
19410,4.22491656839283E-07
19440,4.22813326304025E-07
19470,4.22986737702441E-07
19500,4.23086515112374E-07
19530,4.23145529030445E-07
19560,4.2318391045473E-07
19590,4.23207100268348E-07
19620,4.23222529475242E-07
19650,4.23233102576298E-07
19680,4.23240624327822E-07
19710,4.23246199077978E-07
19740,4.2325052848584E-07
19770,4.23253983528488E-07
19800,4.23256712171792E-07
19830,4.08912029337501E-07
19860,3.9416898153448E-07
19890,3.97180930943637E-07
19920,3.73280727910075E-07
19950,3.65294127303542E-07
19980,3.6449262033625E-07
20010,3.64419186407821E-07
20040,3.64408464118785E-07
20070,3.64408464118785E-07
20100,3.64408464118785E-07
20130,3.64408464118785E-07
20160,3.64408464118785E-07
20190,3.64408464118785E-07
20220,3.64408464118785E-07
20250,3.64408464118785E-07
20280,3.64408464118785E-07
20310,3.64408464118785E-07
20340,3.64408464118785E-07
20370,3.64408464118785E-07
20400,3.64408464118785E-07
20430,0
20460,0
20490,0
20520,0
20550,0
20580,0
20610,0
20640,0
20670,0
20700,0
20730,0
20760,0
20790,0
20820,0
20850,0
20880,0
20910,0
20940,0
20970,0
21000,0
21030,0
21060,0
21090,0
21120,0
21150,0
21180,0
21210,0
21240,0
21270,0
21300,0
21330,0
21360,0
21390,0
21420,0
21450,0
21480,0
21510,0
21540,0
21570,0
21600,0
21630,2.30222963714578E-07
21660,3.27224156299789E-07
21690,5.57237706819349E-07
21720,6.49279770515334E-07
21750,6.49279770515334E-07
21780,6.49279770515334E-07
21810,6.49279770515334E-07
21840,6.49279770515334E-07
21870,6.49279770515334E-07
21900,6.49279770515334E-07
21930,6.49279770515334E-07
21960,6.49279770515334E-07
21990,6.49279770515334E-07
22020,6.49279770515334E-07
22050,6.49279770515334E-07
22080,6.49279770515334E-07
22110,6.49279770515334E-07
22140,6.49279770515334E-07
22170,6.49279770515334E-07
22200,6.49279770515334E-07
22230,0
22260,0
22290,0
22320,0
22350,0
22380,0
22410,0
22440,0
22470,0
22500,0
22530,0
22560,0
22590,0
22620,0
22650,0
22680,0
22710,0
22740,0
22770,0
22800,0
22830,2.38245403084055E-07
22860,3.60433401461952E-07
22890,4.67085387247879E-07
22920,5.20815578667948E-07
22950,5.4488735684418E-07
22980,5.56962766118759E-07
23010,5.62292630714426E-07
23040,5.64879194550234E-07
23070,5.66200474313281E-07
23100,5.66910491791415E-07
23130,5.67315392308997E-07
23160,5.67562215358222E-07
23190,5.67726480388178E-07
23220,5.67837365696373E-07
23250,5.67914211092456E-07
23280,5.6796871371088E-07
23310,5.6800817030599E-07
23340,5.68037260347806E-07
23370,5.68059060269382E-07
23400,5.68075638335651E-07
23430,3.51771722322712E-07
23460,2.35637427903725E-08
23490,1.48215701855164E-10
23520,0
23550,0
23580,0
23610,0
23640,0
23670,0
23700,0
23730,0
23760,0
23790,0
23820,0
23850,0
23880,0
23910,0
23940,0
23970,0
24000,0
24030,0
24060,2.64924236523616E-07
24090,2.64924236523616E-07
24120,2.64924236523616E-07
24150,2.64924236523616E-07
24180,2.64924236523616E-07
24210,2.64924236523616E-07
24240,2.64924236523616E-07
24270,2.64924236523616E-07
24300,2.64924236523616E-07
24330,2.64924236523616E-07
24360,2.64924236523616E-07
24390,2.64924236523616E-07
24420,2.64924236523616E-07
24450,2.64924236523616E-07
24480,2.64924236523616E-07
24510,2.64924236523616E-07
24540,2.64924236523616E-07
24570,2.64924236523616E-07
24600,2.64924236523616E-07
24630,6.15548012423675E-07
24660,8.80970778743578E-07
24690,9.91003614436926E-07
24720,1.03760960743186E-06
24750,1.05644479046873E-06
24780,1.06490813619649E-06
24810,1.06925346753989E-06
24840,1.07207789275157E-06
24870,1.07349011603523E-06
24900,1.07420093163153E-06
24930,1.07459357798414E-06
24960,1.07483357484383E-06
24990,1.0749837785709E-06
25020,1.0750814626334E-06
25050,1.07514667385516E-06
25080,1.07519151531974E-06
25110,1.07522322438869E-06
25140,1.07524596244102E-06
25170,1.07526266013715E-06
25200,1.07527515949878E-06
25230,6.77210728728436E-07
25260,2.02919187973153E-07
25290,4.90011622420564E-08
25320,5.65568845483186E-09
25350,8.55033174540484E-10
25380,1.22175284070802E-10
25410,3.06550972270119E-11
25440,8.81352268997161E-12
25470,2.36820582404816E-12
25500,4.38799949477826E-13
25530,0
25560,0
25590,0
25620,0
25650,0
25680,0
25710,0
25740,0
25770,0
25800,0
25830,2.81086328938548E-07
25860,5.84162360771279E-07
25890,7.23006867352044E-07
25920,7.62806703515396E-07
25950,7.68425292079994E-07
25980,7.74755840715025E-07
26010,7.74755840715025E-07
26040,7.74755840715025E-07
26070,7.74755840715025E-07
26100,7.74755840715025E-07
26130,7.74755840715025E-07
26160,7.74755840715025E-07
26190,7.74755840715025E-07
26220,7.74755840715025E-07
26250,7.74755840715025E-07
26280,7.74755840715025E-07
26310,7.74755840715025E-07
26340,7.74755840715025E-07
26370,7.74755840715025E-07
26400,7.74755840715025E-07
26430,7.32976338911972E-07
26460,0
26490,0
26520,0
26550,0
26580,0
26610,0
26640,0
26670,0
26700,0
26730,0
26760,0
26790,0
26820,0
26850,0
26880,0
26910,0
26940,0
26970,0
27000,0
27030,6.15897928069543E-07
27060,6.81499146282356E-07
27090,6.47860735256766E-07
27120,6.39097652743751E-07
27150,6.39908922369505E-07
27180,6.39494213681344E-07
27210,6.39966694289848E-07
27240,6.39966694289848E-07
27270,6.39966694289848E-07
27300,6.39966694289848E-07
27330,6.39966694289848E-07
27360,6.39966694289848E-07
27390,6.39966694289848E-07
27420,6.39966694289848E-07
27450,6.39966694289848E-07
27480,6.39966694289848E-07
27510,6.39966694289848E-07
27540,6.39966694289848E-07
27570,6.39966694289848E-07
27600,6.39966694289848E-07
27630,5.90627941236361E-07
27660,0
27690,0
27720,0
27750,0
27780,0
27810,0
27840,0
27870,0
27900,0
27930,0
27960,0
27990,0
28020,0
28050,0
28080,0
28110,0
28140,0
28170,0
28200,0
28230,3.50632106832585E-07
28260,5.03909341198612E-07
28290,5.1816986029269E-07
28320,5.98630170055664E-07
28350,5.98630170055664E-07
28380,5.98630170055664E-07
28410,5.98630170055664E-07
28440,5.98630170055664E-07
28470,5.98630170055664E-07
28500,5.98630170055664E-07
28530,5.98630170055664E-07
28560,5.98630170055664E-07
28590,5.98630170055664E-07
28620,5.98630170055664E-07
28650,5.98630170055664E-07
28680,5.98630170055664E-07
28710,5.98630170055664E-07
28740,5.98630170055664E-07
28770,5.98630170055664E-07
28800,5.98630170055664E-07
