空气伽马剂量率 间隔30s  (mSv/h)
计算时间(s)
30,0
60,2.45703561564154E-06
90,4.91895651880785E-06
120,5.43813595191878E-06
150,5.55909880705378E-06
180,5.59135270242887E-06
210,5.59135270242887E-06
240,5.59135270242887E-06
270,5.59135270242887E-06
300,5.59135270242887E-06
330,5.59135270242887E-06
360,5.59135270242887E-06
390,5.59135270242887E-06
420,5.59135270242887E-06
450,5.59135270242887E-06
480,5.59135270242887E-06
510,5.59135270242887E-06
540,5.59135270242887E-06
570,5.59135270242887E-06
600,5.59135270242887E-06
630,5.04756830200826E-06
660,4.48965670420964E-06
690,4.03902620621141E-06
720,3.9763522514295E-06
750,3.93082634804574E-06
780,3.93082634804574E-06
810,3.93082634804574E-06
840,3.93082634804574E-06
870,3.93082634804574E-06
900,3.93082634804574E-06
930,3.93082634804574E-06
960,3.93082634804574E-06
990,3.93082634804574E-06
1020,3.93082634804574E-06
1050,3.93082634804574E-06
1080,3.93082634804574E-06
1110,3.93082634804574E-06
1140,3.93082634804574E-06
1170,3.93082634804574E-06
1200,3.93082634804574E-06
1230,5.23445842541836E-06
1260,6.55821554396184E-06
1290,7.09661048520857E-06
1320,7.16096404314016E-06
1350,7.1687823736724E-06
1380,7.1687823736724E-06
1410,7.1687823736724E-06
1440,7.1687823736724E-06
1470,7.1687823736724E-06
1500,7.1687823736724E-06
1530,7.1687823736724E-06
1560,7.1687823736724E-06
1590,7.1687823736724E-06
1620,7.1687823736724E-06
1650,7.1687823736724E-06
1680,7.1687823736724E-06
1710,7.1687823736724E-06
1740,7.1687823736724E-06
1770,7.1687823736724E-06
1800,7.1687823736724E-06
1830,6.83225807949185E-06
1860,6.47781259725714E-06
1890,6.24456396579327E-06
1920,6.21392345436343E-06
1950,6.20959660700628E-06
1980,6.20959660700628E-06
2010,6.20959660700628E-06
2040,6.20959660700628E-06
2070,6.20959660700628E-06
2100,6.20959660700628E-06
2130,6.20959660700628E-06
2160,6.20959660700628E-06
2190,6.20959660700628E-06
2220,6.20959660700628E-06
2250,6.20959660700628E-06
2280,6.20959660700628E-06
2310,6.20959660700628E-06
2340,6.20959660700628E-06
2370,6.20959660700628E-06
2400,6.20959660700628E-06
2430,6.93897100107067E-06
2460,5.65503066665733E-06
2490,5.45778004692008E-06
2520,5.46539284681525E-06
2550,5.47011023888148E-06
2580,5.47384164576727E-06
2610,5.47624212401408E-06
2640,5.47744162802831E-06
2670,5.47848577669936E-06
2700,5.47903096645914E-06
2730,5.47935086989372E-06
2760,5.47953558933004E-06
2790,5.47964780264618E-06
2820,5.47971612724983E-06
2850,5.47976340664376E-06
2880,5.47979545655149E-06
2910,5.47981776067311E-06
2940,5.47983364214161E-06
2970,5.47984518057374E-06
3000,5.47985385005961E-06
3030,7.49201409845531E-06
3060,1.24633762146338E-05
3090,1.29324945414472E-05
3120,1.29062902406927E-05
3150,1.2906229650636E-05
3180,1.29048960273994E-05
3210,1.29006528501243E-05
3240,1.29006528501243E-05
3270,1.29006528501243E-05
3300,1.29006528501243E-05
3330,1.29006528501243E-05
3360,1.29006528501243E-05
3390,1.29006528501243E-05
3420,1.29006528501243E-05
3450,1.29006528501243E-05
3480,1.29006528501243E-05
3510,1.29006528501243E-05
3540,1.29006528501243E-05
3570,1.29006528501243E-05
3600,1.29006528501243E-05
3630,1.08469783297203E-05
3660,8.28420255174395E-06
3690,7.95834025719166E-06
3720,7.95574581338242E-06
3750,7.97311712869564E-06
3780,7.9793890903468E-06
3810,7.98314023074847E-06
3840,7.98514658440664E-06
3870,7.98634111917158E-06
3900,7.98725313595306E-06
3930,7.98776034343929E-06
3960,7.98805017223933E-06
3990,7.98822263277141E-06
4020,7.98833010924734E-06
4050,7.98839965743327E-06
4080,7.98844612732893E-06
4110,7.98847804575763E-06
4140,7.98850050454926E-06
4170,7.98851667887674E-06
4200,7.98852861378124E-06
4230,9.6510294685384E-06
4260,1.1284217842324E-05
4290,1.07336853465656E-05
4320,1.0670253611563E-05
4350,1.06625125995863E-05
4380,1.06557479663521E-05
4410,1.06551660997682E-05
4440,1.06551391505208E-05
4470,1.06551364896339E-05
4500,1.06551364896339E-05
4530,1.06551364896339E-05
4560,1.06551364896339E-05
4590,1.06551364896339E-05
4620,1.06551364896339E-05
4650,1.06551364896339E-05
4680,1.06551364896339E-05
4710,1.06551364896339E-05
4740,1.06551364896339E-05
4770,1.06551364896339E-05
4800,1.06551364896339E-05
4830,1.13999012216587E-05
4860,1.16364820411488E-05
4890,1.23402643666125E-05
4920,1.24416772408914E-05
4950,1.24658349210017E-05
4980,1.24705602828893E-05
5010,1.24719179443663E-05
5040,1.24722379933526E-05
5070,1.24724199638932E-05
5100,1.24724621048856E-05
5130,1.24725096802655E-05
5160,1.24725096802655E-05
5190,1.24725096802655E-05
5220,1.24725096802655E-05
5250,1.24725096802655E-05
5280,1.24725096802655E-05
5310,1.24725096802655E-05
5340,1.24725096802655E-05
5370,1.24725096802655E-05
5400,1.24725096802655E-05
5430,1.04977583614064E-05
5460,8.246536711222E-06
5490,7.74265510297218E-06
5520,7.68408309282172E-06
5550,7.67656438488334E-06
5580,7.67493768959892E-06
5610,7.67461892926741E-06
5640,7.67420685463144E-06
5670,7.67420685463144E-06
5700,7.67420685463144E-06
5730,7.67420685463144E-06
5760,7.67420685463144E-06
5790,7.67420685463144E-06
5820,7.67420685463144E-06
5850,7.67420685463144E-06
5880,7.67420685463144E-06
5910,7.67420685463144E-06
5940,7.67420685463144E-06
5970,7.67420685463144E-06
6000,7.67420685463144E-06
6030,9.04897195945182E-06
6060,9.90580391954123E-06
6090,1.06427215590464E-05
6120,1.07529725207429E-05
6150,1.07744279434976E-05
6180,1.07787380637506E-05
6210,1.07801808257727E-05
6240,1.07804895500449E-05
6270,1.07805632984603E-05
6300,1.07805632984603E-05
6330,1.07805632984603E-05
6360,1.07805632984603E-05
6390,1.07805632984603E-05
6420,1.07805632984603E-05
6450,1.07805632984603E-05
6480,1.07805632984603E-05
6510,1.07805632984603E-05
6540,1.07805632984603E-05
6570,1.07805632984603E-05
6600,1.07805632984603E-05
6630,1.36482624722446E-05
6660,1.69066047662986E-05
6690,1.68795871761205E-05
6720,1.68458212846279E-05
6750,1.68435235048083E-05
6780,1.68420745365557E-05
6810,1.68411476854676E-05
6840,1.68411476854676E-05
6870,1.68411476854676E-05
6900,1.68411476854676E-05
6930,1.68411476854676E-05
6960,1.68411476854676E-05
6990,1.68411476854676E-05
7020,1.68411476854676E-05
7050,1.68411476854676E-05
7080,1.68411476854676E-05
7110,1.68411476854676E-05
7140,1.68411476854676E-05
7170,1.68411476854676E-05
7200,1.68411476854676E-05
7230,1.58276946876462E-05
7260,1.46389967407434E-05
7290,1.46162601062821E-05
7320,1.46218672047785E-05
7350,1.46231580576901E-05
7380,1.4623420848808E-05
7410,1.46234644020869E-05
7440,1.46234644020869E-05
7470,1.46234644020869E-05
7500,1.46234644020869E-05
7530,1.46234644020869E-05
7560,1.46234644020869E-05
7590,1.46234644020869E-05
7620,1.46234644020869E-05
7650,1.46234644020869E-05
7680,1.46234644020869E-05
7710,1.46234644020869E-05
7740,1.46234644020869E-05
7770,1.46234644020869E-05
7800,1.46234644020869E-05
7830,1.3190046979665E-05
7860,1.15357156449438E-05
7890,1.16291349188054E-05
7920,1.16604053362481E-05
7950,1.16664786928689E-05
7980,1.16675484953677E-05
8010,1.16675484953677E-05
8040,1.16675484953677E-05
8070,1.16675484953677E-05
8100,1.16675484953677E-05
8130,1.16675484953677E-05
8160,1.16675484953677E-05
8190,1.16675484953677E-05
8220,1.16675484953677E-05
8250,1.16675484953677E-05
8280,1.16675484953677E-05
8310,1.16675484953677E-05
8340,1.16675484953677E-05
8370,1.16675484953677E-05
8400,1.16675484953677E-05
8430,1.25504494744386E-05
8460,1.28794915878432E-05
8490,1.32139443929831E-05
8520,1.3328761201327E-05
8550,1.33629398411662E-05
8580,1.33694321836324E-05
8610,1.33712983910802E-05
8640,1.33717173999383E-05
8670,1.33719553126228E-05
8700,1.33720136660093E-05
8730,1.3372037137751E-05
8760,1.33720973781181E-05
8790,1.33720973781181E-05
8820,1.33720973781181E-05
8850,1.33720973781181E-05
8880,1.33720973781181E-05
8910,1.33720973781181E-05
8940,1.33720973781181E-05
8970,1.33720973781181E-05
9000,1.33720973781181E-05
9030,1.68871806842455E-05
9060,1.82228493273139E-05
9090,1.73966957592755E-05
9120,1.7248388483348E-05
9150,1.72305598355312E-05
9180,1.72223329390811E-05
9210,1.72223329390811E-05
9240,1.72223329390811E-05
9270,1.72223329390811E-05
9300,1.72223329390811E-05
9330,1.72223329390811E-05
9360,1.72223329390811E-05
9390,1.72223329390811E-05
9420,1.72223329390811E-05
9450,1.72223329390811E-05
9480,1.72223329390811E-05
9510,1.72223329390811E-05
9540,1.72223329390811E-05
9570,1.72223329390811E-05
9600,1.72223329390811E-05
9630,1.68126844244678E-05
9660,1.46984441107382E-05
9690,1.40901045243543E-05
9720,1.4055385067362E-05
9750,1.40558854314658E-05
9780,1.40561048489765E-05
9810,1.40567415240197E-05
9840,1.40567007079308E-05
9870,1.40569122701738E-05
9900,1.40569107366967E-05
9930,1.40569107366967E-05
9960,1.40569107366967E-05
9990,1.40569107366967E-05
10020,1.40569107366967E-05
10050,1.40569107366967E-05
10080,1.40569107366967E-05
10110,1.40569107366967E-05
10140,1.40569107366967E-05
10170,1.40569107366967E-05
10200,1.40569107366967E-05
10230,1.56720994868448E-05
10260,1.49557730250154E-05
10290,1.44471421085056E-05
10320,1.43887356522512E-05
10350,1.43776997523866E-05
10380,1.4375745726842E-05
10410,1.43740607037756E-05
10440,1.43740607037756E-05
10470,1.43740607037756E-05
10500,1.43740607037756E-05
10530,1.43740607037756E-05
10560,1.43740607037756E-05
10590,1.43740607037756E-05
10620,1.43740607037756E-05
10650,1.43740607037756E-05
10680,1.43740607037756E-05
10710,1.43740607037756E-05
10740,1.43740607037756E-05
10770,1.43740607037756E-05
10800,1.43740607037756E-05
10830,1.6403024325285E-05
10860,1.82389698738326E-05
10890,1.78530219009915E-05
10920,1.78141860760582E-05
10950,1.78104655853774E-05
10980,1.78094193804145E-05
11010,1.78094193804145E-05
11040,1.78094193804145E-05
11070,1.78094193804145E-05
11100,1.78094193804145E-05
11130,1.78094193804145E-05
11160,1.78094193804145E-05
11190,1.78094193804145E-05
11220,1.78094193804145E-05
11250,1.78094193804145E-05
11280,1.78094193804145E-05
11310,1.78094193804145E-05
11340,1.78094193804145E-05
11370,1.78094193804145E-05
11400,1.78094193804145E-05
11430,1.48432224502699E-05
11460,1.2868521983551E-05
11490,1.29013798550266E-05
11520,1.29237279785127E-05
11550,1.29321713142787E-05
11580,1.293385950883E-05
11610,1.29344118410752E-05
11640,1.29345153962975E-05
11670,1.29346330097742E-05
11700,1.29346519917895E-05
11730,1.29346519917895E-05
11760,1.29346519917895E-05
11790,1.29346519917895E-05
11820,1.29346519917895E-05
11850,1.29346519917895E-05
11880,1.29346519917895E-05
11910,1.29346519917895E-05
11940,1.29346519917895E-05
11970,1.29346519917895E-05
12000,1.29346519917895E-05
12030,1.00681754093168E-05
12060,7.53246197458339E-06
12090,7.2392688212166E-06
12120,7.19936578007719E-06
12150,7.19926173933081E-06
12180,7.20014183537392E-06
12210,7.20122831180556E-06
12240,7.20187672982237E-06
12270,7.20250400287505E-06
12300,7.2028772700526E-06
12330,7.20308201477549E-06
12360,7.20319982796251E-06
12390,7.20327119760883E-06
12420,7.20331632498983E-06
12450,7.20334594154632E-06
12480,7.20336602824556E-06
12510,7.20338008257439E-06
12540,7.20339023714011E-06
12570,7.20339783898797E-06
12600,7.20340365889106E-06
12630,7.45833440624824E-06
12660,7.74874824496315E-06
12690,7.82513120058374E-06
12720,7.84297341208567E-06
12750,7.84757395128946E-06
12780,7.84888844992604E-06
12810,7.84936970952451E-06
12840,7.84957612325997E-06
12870,7.84967430121387E-06
12900,7.84972491701144E-06
12930,7.84975005573822E-06
12960,7.84976381766358E-06
12990,7.84977199586824E-06
13020,7.84977709004056E-06
13050,7.84978031365256E-06
13080,7.84978259092242E-06
13110,7.84978420309943E-06
13140,7.84978528056269E-06
13170,7.84978617574275E-06
13200,7.84978686761785E-06
13230,9.9399114024984E-06
13260,1.10666465605539E-05
13290,1.07184270821627E-05
13320,1.06529193713669E-05
13350,1.06424027254538E-05
13380,1.06406316714786E-05
13410,1.06402040129414E-05
13440,1.06397116334396E-05
13470,1.06397116334396E-05
13500,1.06397116334396E-05
13530,1.06397116334396E-05
13560,1.06397116334396E-05
13590,1.06397116334396E-05
13620,1.06397116334396E-05
13650,1.06397116334396E-05
13680,1.06397116334396E-05
13710,1.06397116334396E-05
13740,1.06397116334396E-05
13770,1.06397116334396E-05
13800,1.06397116334396E-05
13830,7.96956607108106E-06
13860,6.29695977288834E-06
13890,6.22961595410428E-06
13920,6.23725603563669E-06
13950,6.23995468576088E-06
13980,6.24189095615605E-06
14010,6.2427225689403E-06
14040,6.2434804367936E-06
14070,6.24386029155261E-06
14100,6.24405112494618E-06
14130,6.24415480144989E-06
14160,6.24421474452837E-06
14190,6.24425120388584E-06
14220,6.24427437869902E-06
14250,6.2442897396718E-06
14280,6.24430034561553E-06
14310,6.2443080196628E-06
14340,6.24431387622373E-06
14370,6.24431800921997E-06
14400,6.24432146495402E-06
14430,8.99818546156775E-06
14460,1.21029434867957E-05
14490,1.34618709880498E-05
14520,1.35479516699412E-05
14550,1.3565923273604E-05
14580,1.35508944049455E-05
14610,1.35506918395159E-05
14640,1.35506918395159E-05
14670,1.35506918395159E-05
14700,1.35506918395159E-05
14730,1.35506918395159E-05
14760,1.35506918395159E-05
14790,1.35506918395159E-05
14820,1.35506918395159E-05
14850,1.35506918395159E-05
14880,1.35506918395159E-05
14910,1.35506918395159E-05
14940,1.35506918395159E-05
14970,1.35506918395159E-05
15000,1.35506918395159E-05
15030,1.45652670789057E-05
15060,1.44834287692443E-05
15090,1.51059040143087E-05
15120,1.5294741115099E-05
15150,1.5338357301023E-05
15180,1.53496161952041E-05
15210,1.53516774793198E-05
15240,1.53520853254801E-05
15270,1.5353310284352E-05
15300,1.5353310284352E-05
15330,1.5353310284352E-05
15360,1.5353310284352E-05
15390,1.5353310284352E-05
15420,1.5353310284352E-05
15450,1.5353310284352E-05
15480,1.5353310284352E-05
15510,1.5353310284352E-05
15540,1.5353310284352E-05
15570,1.5353310284352E-05
15600,1.5353310284352E-05
15630,1.55590752585847E-05
15660,1.36474244642414E-05
15690,1.26460459722976E-05
15720,1.25267129369047E-05
15750,1.25066839071377E-05
15780,1.25030997094257E-05
15810,1.2499003889449E-05
15840,1.2499003889449E-05
15870,1.2499003889449E-05
15900,1.2499003889449E-05
15930,1.2499003889449E-05
15960,1.2499003889449E-05
15990,1.2499003889449E-05
16020,1.2499003889449E-05
16050,1.2499003889449E-05
16080,1.2499003889449E-05
16110,1.2499003889449E-05
16140,1.2499003889449E-05
16170,1.2499003889449E-05
16200,1.2499003889449E-05
16230,1.19350049458792E-05
16260,1.1437016531073E-05
16290,1.30072792964817E-05
16320,1.33646246850572E-05
16350,1.34286167230723E-05
16380,1.34428599537272E-05
16410,1.34457532802872E-05
16440,1.3450677850019E-05
16470,1.3450677850019E-05
16500,1.3450677850019E-05
16530,1.3450677850019E-05
16560,1.3450677850019E-05
16590,1.3450677850019E-05
16620,1.3450677850019E-05
16650,1.3450677850019E-05
16680,1.3450677850019E-05
16710,1.3450677850019E-05
16740,1.3450677850019E-05
16770,1.3450677850019E-05
16800,1.3450677850019E-05
16830,1.76696710221997E-05
16860,1.65370994853278E-05
16890,1.43325438415712E-05
16920,1.40761673942835E-05
16950,1.4047562640847E-05
16980,1.40413561466002E-05
17010,1.40400202218604E-05
17040,1.40390892207615E-05
17070,1.40390892207615E-05
17100,1.40390892207615E-05
17130,1.40390892207615E-05
17160,1.40390892207615E-05
17190,1.40390892207615E-05
17220,1.40390892207615E-05
17250,1.40390892207615E-05
17280,1.40390892207615E-05
17310,1.40390892207615E-05
17340,1.40390892207615E-05
17370,1.40390892207615E-05
17400,1.40390892207615E-05
17430,1.25708713956694E-05
17460,9.70195642273827E-06
17490,9.28739097331939E-06
17520,9.30592889786296E-06
17550,9.33461714681061E-06
17580,9.3446458103485E-06
17610,9.34943286348907E-06
17640,9.35230729880668E-06
17670,9.3537346344701E-06
17700,9.35480911355996E-06
17730,9.35551090197681E-06
17760,9.35592414811678E-06
17790,9.35616836285819E-06
17820,9.35631952535087E-06
17850,9.35641678795899E-06
17880,9.35648146332379E-06
17910,9.35652570361299E-06
17940,9.35655671863528E-06
17970,9.35657893574129E-06
18000,9.35659518789252E-06
18030,9.51245372854677E-06
18060,9.45219951361331E-06
18090,9.54554498139179E-06
18120,9.57563715083529E-06
18150,9.58525836574171E-06
18180,9.58835742048254E-06
18210,9.58953835958843E-06
18240,9.59005781950239E-06
18270,9.59030804699425E-06
18300,9.59043272909871E-06
18330,9.59049214842685E-06
18360,9.59052080066668E-06
18390,9.59053740931461E-06
18420,9.59054800118592E-06
18450,9.59055459250593E-06
18480,9.59055937487359E-06
18510,9.59056277649355E-06
18540,9.59056492485869E-06
18570,9.59056686408275E-06
18600,9.59056798843527E-06
18630,1.22240702031875E-05
18660,1.24803009151416E-05
18690,1.16878861420223E-05
18720,1.15604801356202E-05
18750,1.15387364708567E-05
18780,1.15348332429128E-05
18810,1.15338653567205E-05
18840,1.15331603540164E-05
18870,1.15331603540164E-05
18900,1.15331603540164E-05
18930,1.15331603540164E-05
18960,1.15331603540164E-05
18990,1.15331603540164E-05
19020,1.15331603540164E-05
19050,1.15331603540164E-05
19080,1.15331603540164E-05
19110,1.15331603540164E-05
19140,1.15331603540164E-05
19170,1.15331603540164E-05
19200,1.15331603540164E-05
19230,8.27279788985116E-06
19260,6.35896077896483E-06
19290,6.24318382282146E-06
19320,6.24858100154737E-06
19350,6.25133301993609E-06
19380,6.25324522346035E-06
19410,6.25421710662288E-06
19440,6.25497614433066E-06
19470,6.25541335313253E-06
19500,6.25563952682216E-06
19530,6.25576285819457E-06
19560,6.25583371868586E-06
19590,6.25587677981802E-06
19620,6.25590412141234E-06
19650,6.25592217293111E-06
19680,6.25593454476945E-06
19710,6.25594338263771E-06
19740,6.25595000711643E-06
19770,6.25595492831309E-06
19800,6.25595886952398E-06
19830,7.48492795839802E-06
19860,9.1656456687647E-06
19890,9.16031223418934E-06
19920,9.13858345186744E-06
19950,9.13319014355188E-06
19980,9.13252967114036E-06
20010,9.13233536387368E-06
20040,9.1322682629098E-06
20070,9.13210853254769E-06
20100,9.13207255941777E-06
20130,9.13206734753039E-06
20160,9.13206546945061E-06
20190,9.13206492178363E-06
20220,9.13206492178363E-06
20250,9.13206492178363E-06
20280,9.13206492178363E-06
20310,9.13206492178363E-06
20340,9.13206492178363E-06
20370,9.13206492178363E-06
20400,9.13206492178363E-06
20430,1.00831003754852E-05
20460,1.26743935744416E-05
20490,1.2755291464503E-05
20520,1.2762092200174E-05
20550,1.27627506481702E-05
20580,1.27626477235603E-05
20610,1.27626477235603E-05
20640,1.27626477235603E-05
20670,1.27626477235603E-05
20700,1.27626477235603E-05
20730,1.27626477235603E-05
20760,1.27626477235603E-05
20790,1.27626477235603E-05
20820,1.27626477235603E-05
20850,1.27626477235603E-05
20880,1.27626477235603E-05
20910,1.27626477235603E-05
20940,1.27626477235603E-05
20970,1.27626477235603E-05
21000,1.27626477235603E-05
21030,1.17826973273892E-05
21060,9.59111839502262E-06
21090,9.42844236821297E-06
21120,9.41836357644608E-06
21150,9.41722441162369E-06
21180,9.41686007421836E-06
21210,9.41681079629432E-06
21240,9.41681164882076E-06
21270,9.41681164882076E-06
21300,9.41681164882076E-06
21330,9.41681164882076E-06
21360,9.41681164882076E-06
21390,9.41681164882076E-06
21420,9.41681164882076E-06
21450,9.41681164882076E-06
21480,9.41681164882076E-06
21510,9.41681164882076E-06
21540,9.41681164882076E-06
21570,9.41681164882076E-06
21600,9.41681164882076E-06
21630,1.03582278572454E-05
21660,8.84873968245917E-06
21690,1.0565634849845E-05
21720,1.0919085657245E-05
21750,1.09983671431804E-05
21780,1.10147921517517E-05
21810,1.10191797854504E-05
21840,1.10206213047585E-05
21870,1.10210584834006E-05
21900,1.10211794052932E-05
21930,1.10211794052932E-05
21960,1.10211794052932E-05
21990,1.10211794052932E-05
22020,1.10211794052932E-05
22050,1.10211794052932E-05
22080,1.10211794052932E-05
22110,1.10211794052932E-05
22140,1.10211794052932E-05
22170,1.10211794052932E-05
22200,1.10211794052932E-05
22230,1.47306797266348E-05
22260,1.53265110426372E-05
22290,1.44431936179118E-05
22320,1.42994132823938E-05
22350,1.42710391969101E-05
22380,1.42656757746025E-05
22410,1.42640807846612E-05
22440,1.42630354039091E-05
22470,1.42630354039091E-05
22500,1.42630354039091E-05
22530,1.42630354039091E-05
22560,1.42630354039091E-05
22590,1.42630354039091E-05
22620,1.42630354039091E-05
22650,1.42630354039091E-05
22680,1.42630354039091E-05
22710,1.42630354039091E-05
