空气伽马剂量率 间隔30s  (mSv/h)
计算时间(s)
30,0
60,5.86677893811428E-07
90,1.164649847749E-06
120,1.39200077472436E-06
150,1.4625882636052E-06
180,1.48452286116833E-06
210,1.49035748979885E-06
240,1.49035748979885E-06
270,1.49035748979885E-06
300,1.49035748979885E-06
330,1.49035748979885E-06
360,1.49035748979885E-06
390,1.49035748979885E-06
420,1.49035748979885E-06
450,1.49035748979885E-06
480,1.49035748979885E-06
510,1.49035748979885E-06
540,1.49035748979885E-06
570,1.49035748979885E-06
600,1.49035748979885E-06
630,1.53327171590107E-06
660,1.56835549165996E-06
690,1.48032481103541E-06
720,1.44950331173079E-06
750,1.44137451168349E-06
780,1.43940193684733E-06
810,1.4386203095123E-06
840,1.4386203095123E-06
870,1.4386203095123E-06
900,1.4386203095123E-06
930,1.4386203095123E-06
960,1.4386203095123E-06
990,1.4386203095123E-06
1020,1.4386203095123E-06
1050,1.4386203095123E-06
1080,1.4386203095123E-06
1110,1.4386203095123E-06
1140,1.4386203095123E-06
1170,1.4386203095123E-06
1200,1.4386203095123E-06
1230,1.27101586896805E-06
1260,1.09482044087063E-06
1290,1.04692106097664E-06
1320,8.93441079842127E-07
1350,8.93441079842127E-07
1380,8.93441079842127E-07
1410,8.93441079842127E-07
1440,8.93441079842127E-07
1470,8.93441079842127E-07
1500,8.93441079842127E-07
1530,8.93441079842127E-07
1560,8.93441079842127E-07
1590,8.93441079842127E-07
1620,8.93441079842127E-07
1650,8.93441079842127E-07
1680,8.93441079842127E-07
1710,8.93441079842127E-07
1740,8.93441079842127E-07
1770,8.93441079842127E-07
1800,8.93441079842127E-07
1830,9.14354012433099E-07
1860,9.29117448452677E-07
1890,9.21236545986106E-07
1920,9.21236545986106E-07
1950,9.21236545986106E-07
1980,9.21236545986106E-07
2010,9.21236545986106E-07
2040,9.21236545986106E-07
2070,9.21236545986106E-07
2100,9.21236545986106E-07
2130,9.21236545986106E-07
2160,9.21236545986106E-07
2190,9.21236545986106E-07
2220,9.21236545986106E-07
2250,9.21236545986106E-07
2280,9.21236545986106E-07
2310,9.21236545986106E-07
2340,9.21236545986106E-07
2370,9.21236545986106E-07
2400,9.21236545986106E-07
2430,1.32629525636946E-06
2460,1.50100000388911E-06
2490,1.55468659461223E-06
2520,1.56782787097878E-06
2550,1.57443953093171E-06
2580,1.57863639142651E-06
2610,1.5804704292636E-06
2640,1.58201931499798E-06
2670,1.58288212817825E-06
2700,1.58332556894401E-06
2730,1.58359271062903E-06
2760,1.5837499846332E-06
2790,1.58384696214958E-06
2820,1.58390913514297E-06
2850,1.5839503403011E-06
2880,1.58397785520203E-06
2910,1.58399760081769E-06
2940,1.5840117209594E-06
2970,1.58402204996723E-06
3000,1.58402988648053E-06
3030,1.03949404068141E-06
3060,3.66535178392062E-07
3090,9.1479490990352E-08
3120,8.54981877428805E-09
3150,1.08025476595985E-09
3180,1.92288158839823E-10
3210,4.31470466391967E-11
3240,6.56427132038151E-12
3270,0
3300,0
3330,0
3360,0
3390,0
3420,0
3450,0
3480,0
3510,0
3540,0
3570,0
3600,0
3630,5.8677495596058E-07
3660,7.71147861580187E-07
3690,8.13593290937981E-07
3720,8.33377799955937E-07
3750,8.40665857966918E-07
3780,8.45449970764761E-07
3810,8.486410069929E-07
3840,8.5017920443648E-07
3870,8.50908537038318E-07
3900,8.5128919028312E-07
3930,8.51525833522455E-07
3960,8.51670466316739E-07
3990,8.51762062143392E-07
4020,8.51822108445639E-07
4050,8.51862663278668E-07
4080,8.51890773774507E-07
4110,8.51910992097944E-07
4140,8.5192537399589E-07
4170,8.51935976129715E-07
4200,8.51943980340139E-07
4230,6.2965187376517E-07
4260,2.08832018926705E-07
4290,1.58587072485825E-08
4320,7.44310898329442E-10
4350,8.29374056170887E-11
4380,8.16652469423333E-12
4410,3.79216644864976E-13
4440,0
4470,0
4500,0
4530,0
4560,0
4590,0
4620,0
4650,0
4680,0
4710,0
4740,0
4770,0
4800,0
4830,2.98852295920057E-07
4860,2.84326422745511E-07
4890,4.45020432024587E-07
4920,4.45020432024587E-07
4950,4.45020432024587E-07
4980,4.45020432024587E-07
5010,4.45020432024587E-07
5040,4.45020432024587E-07
5070,4.45020432024587E-07
5100,4.45020432024587E-07
5130,4.45020432024587E-07
5160,4.45020432024587E-07
5190,4.45020432024587E-07
5220,4.45020432024587E-07
5250,4.45020432024587E-07
5280,4.45020432024587E-07
5310,4.45020432024587E-07
5340,4.45020432024587E-07
5370,4.45020432024587E-07
5400,4.45020432024587E-07
5430,4.89418203588897E-07
5460,5.67516339809522E-07
5490,5.54166331308293E-07
5520,5.50276302364672E-07
5550,5.50276302364672E-07
5580,5.50276302364672E-07
5610,5.50276302364672E-07
5640,5.50276302364672E-07
5670,5.50276302364672E-07
5700,5.50276302364672E-07
5730,5.50276302364672E-07
5760,5.50276302364672E-07
5790,5.50276302364672E-07
5820,5.50276302364672E-07
5850,5.50276302364672E-07
5880,5.50276302364672E-07
5910,5.50276302364672E-07
5940,5.50276302364672E-07
5970,5.50276302364672E-07
6000,5.50276302364672E-07
6030,5.80140392160289E-07
6060,6.05269200315435E-07
6090,6.3370261172694E-07
6120,6.44539600027769E-07
6150,6.44539600027769E-07
6180,6.44539600027769E-07
6210,6.44539600027769E-07
6240,6.44539600027769E-07
6270,6.44539600027769E-07
6300,6.44539600027769E-07
6330,6.44539600027769E-07
6360,6.44539600027769E-07
6390,6.44539600027769E-07
6420,6.44539600027769E-07
6450,6.44539600027769E-07
6480,6.44539600027769E-07
6510,6.44539600027769E-07
6540,6.44539600027769E-07
6570,6.44539600027769E-07
6600,6.44539600027769E-07
6630,2.83108318035253E-07
6660,0
6690,0
6720,0
6750,0
6780,0
6810,0
6840,0
6870,0
6900,0
6930,0
6960,0
6990,0
7020,0
7050,0
7080,0
7110,0
7140,0
7170,0
7200,0
7230,0
7260,0
7290,0
7320,0
7350,0
7380,0
7410,0
7440,0
7470,0
7500,0
7530,0
7560,0
7590,0
7620,0
7650,0
7680,0
7710,0
7740,0
7770,0
7800,0
7830,0
7860,3.76760240451657E-07
7890,3.76760240451657E-07
7920,3.76760240451657E-07
7950,3.76760240451657E-07
7980,3.76760240451657E-07
8010,3.76760240451657E-07
8040,3.76760240451657E-07
8070,3.76760240451657E-07
8100,3.76760240451657E-07
8130,3.76760240451657E-07
8160,3.76760240451657E-07
8190,3.76760240451657E-07
8220,3.76760240451657E-07
8250,3.76760240451657E-07
8280,3.76760240451657E-07
8310,3.76760240451657E-07
8340,3.76760240451657E-07
8370,3.76760240451657E-07
8400,3.76760240451657E-07
8430,3.26244971867181E-07
8460,5.03034363073656E-07
8490,4.98306417851216E-07
8520,4.98306417851216E-07
8550,4.98306417851216E-07
8580,4.98306417851216E-07
8610,4.98306417851216E-07
8640,4.98306417851216E-07
8670,4.98306417851216E-07
8700,4.98306417851216E-07
8730,4.98306417851216E-07
8760,4.98306417851216E-07
8790,4.98306417851216E-07
8820,4.98306417851216E-07
8850,4.98306417851216E-07
8880,4.98306417851216E-07
8910,4.98306417851216E-07
8940,4.98306417851216E-07
8970,4.98306417851216E-07
9000,4.98306417851216E-07
9030,0
9060,0
9090,0
9120,0
9150,0
9180,0
9210,0
9240,0
9270,0
9300,0
9330,0
9360,0
9390,0
9420,0
9450,0
9480,0
9510,0
9540,0
9570,0
9600,0
9630,0
9660,2.41307316535962E-07
9690,2.41307316535962E-07
9720,2.41307316535962E-07
9750,2.41307316535962E-07
9780,2.41307316535962E-07
9810,2.41307316535962E-07
9840,2.41307316535962E-07
9870,2.41307316535962E-07
9900,2.41307316535962E-07
9930,2.41307316535962E-07
9960,2.41307316535962E-07
9990,2.41307316535962E-07
10020,2.41307316535962E-07
10050,2.41307316535962E-07
10080,2.41307316535962E-07
10110,2.41307316535962E-07
10140,2.41307316535962E-07
10170,2.41307316535962E-07
10200,2.41307316535962E-07
10230,0
10260,0
10290,0
10320,0
10350,0
10380,0
10410,0
10440,0
10470,0
10500,0
10530,0
10560,0
10590,0
10620,0
10650,0
10680,0
10710,0
10740,0
10770,0
10800,0
10830,0
10860,0
10890,0
10920,0
10950,0
10980,0
11010,0
11040,0
11070,0
11100,0
11130,0
11160,0
11190,0
11220,0
11250,0
11280,0
11310,0
11340,0
11370,0
11400,0
11430,0
11460,2.44973250720976E-07
11490,2.44973250720976E-07
11520,2.44973250720976E-07
11550,2.44973250720976E-07
11580,2.44973250720976E-07
11610,2.44973250720976E-07
11640,2.44973250720976E-07
11670,2.44973250720976E-07
11700,2.44973250720976E-07
11730,2.44973250720976E-07
11760,2.44973250720976E-07
11790,2.44973250720976E-07
11820,2.44973250720976E-07
11850,2.44973250720976E-07
11880,2.44973250720976E-07
11910,2.44973250720976E-07
11940,2.44973250720976E-07
11970,2.44973250720976E-07
12000,2.44973250720976E-07
12030,4.70403331144554E-07
12060,5.71245301582283E-07
12090,5.82681249297358E-07
12120,5.8573485277134E-07
12150,5.88383769053029E-07
12180,5.9093950347629E-07
12210,5.92021979461644E-07
12240,5.9251531810848E-07
12270,5.92768170831966E-07
12300,5.92924130496044E-07
12330,5.93020014481098E-07
12360,5.9307782781934E-07
12390,5.93115057880443E-07
12420,5.93139840082597E-07
12450,5.93156814454122E-07
12480,5.93168739243601E-07
12510,5.93177376179702E-07
12540,5.93183829444741E-07
12570,5.93188817614101E-07
12600,5.93192850345829E-07
12630,5.25334255776453E-07
12660,4.68568008574203E-07
12690,4.58110236833447E-07
12720,4.56051333924558E-07
12750,4.5545634550095E-07
12780,4.5512715752948E-07
12810,4.55036282063391E-07
12840,4.55008364438335E-07
12870,4.5499860553547E-07
12900,4.54994574501883E-07
12930,4.54993216691638E-07
12960,4.54992991393157E-07
12990,4.54992973893704E-07
13020,4.54993373094748E-07
13050,4.54993807030124E-07
13080,4.54994006205495E-07
13110,4.54994411299156E-07
13140,4.54994774938696E-07
13170,4.54994895435913E-07
13200,4.54995199365046E-07
13230,3.24150705979736E-07
13260,9.22103756360079E-08
13290,3.3461028008733E-09
13320,0
13350,0
13380,0
13410,0
13440,0
13470,0
13500,0
13530,0
13560,0
13590,0
13620,0
13650,0
13680,0
13710,0
13740,0
13770,0
13800,0
13830,2.4018596376329E-07
13860,3.37170654869218E-07
13890,3.59757184610441E-07
13920,3.67806467747389E-07
13950,3.71531263498565E-07
13980,3.72866330211255E-07
14010,3.73405212373497E-07
14040,3.73656048678792E-07
14070,3.73799082811948E-07
14100,3.73879975186969E-07
14130,3.73928297013919E-07
14160,3.7395850530503E-07
14190,3.73978126209599E-07
14220,3.73991291927073E-07
14250,3.74000376848005E-07
14280,3.74006871820002E-07
14310,3.74011784942655E-07
14340,3.74015692676907E-07
14370,3.74018766886595E-07
14400,3.74021209960931E-07
14430,2.42592853468475E-07
14460,2.59907681946701E-08
14490,5.10256833510456E-10
14520,0
14550,0
14580,0
14610,0
14640,0
14670,0
14700,0
14730,0
14760,0
14790,0
14820,0
14850,0
14880,0
14910,0
14940,0
14970,0
15000,0
15030,0
15060,0
15090,0
15120,0
15150,0
15180,0
15210,0
15240,0
15270,0
15300,0
15330,0
15360,0
15390,0
15420,0
15450,0
15480,0
15510,0
15540,0
15570,0
15600,0
15630,0
15660,0
15690,0
15720,0
15750,0
15780,0
15810,0
15840,0
15870,0
15900,0
15930,0
15960,0
15990,0
16020,0
16050,0
16080,0
16110,0
16140,0
16170,0
16200,0
16230,0
16260,0
16290,0
16320,0
16350,0
16380,0
16410,0
16440,0
16470,0
16500,0
16530,0
16560,0
16590,0
16620,0
16650,0
16680,0
16710,0
16740,0
16770,0
16800,0
16830,0
16860,0
16890,0
16920,0
16950,0
16980,0
17010,0
17040,0
17070,0
17100,0
17130,0
17160,0
17190,0
17220,0
17250,0
17280,0
17310,0
17340,0
17370,0
17400,0
17430,4.28243245495138E-07
17460,5.13624135745629E-07
17490,5.5466483672431E-07
17520,5.71186500075935E-07
17550,5.79614623820543E-07
17580,5.85435675942476E-07
17610,5.88143378114121E-07
17640,5.89441993981861E-07
17670,5.90098503168916E-07
17700,5.90452762689861E-07
17730,5.90666184151206E-07
17760,5.90808984936659E-07
17790,5.90901767450433E-07
17820,5.90963943489287E-07
17850,5.91006748358745E-07
17880,5.91036923576418E-07
17910,5.91058645511731E-07
17940,5.91074575963855E-07
17970,5.91086455021776E-07
18000,5.91095446427988E-07
18030,4.91322167069783E-07
18060,4.03420365712105E-07
18090,3.640269227783E-07
18120,3.49960998991273E-07
18150,3.45538699162106E-07
18180,3.44062434932556E-07
18210,3.43528326196313E-07
18240,3.43316849005771E-07
18270,3.43226763795543E-07
18300,3.43184851391285E-07
18330,3.43162579659593E-07
18360,3.43150647273747E-07
18390,3.43144092338439E-07
18420,3.43139555273926E-07
18450,3.43137650826116E-07
18480,3.43134696430381E-07
18510,3.43132230709285E-07
18540,3.43129995277356E-07
18570,3.43127823842531E-07
18600,3.43123504253601E-07
18630,2.87729783513811E-07
18660,1.01327392865655E-07
18690,0
18720,0
18750,0
18780,0
18810,0
18840,0
18870,0
18900,0
18930,0
18960,0
18990,0
19020,0
19050,0
19080,0
19110,0
19140,0
19170,0
19200,0
19230,3.01473982791062E-07
19260,4.45910090718436E-07
19290,4.80383979754619E-07
19320,4.8922828020898E-07
19350,4.94014650745197E-07
19380,4.96184911212852E-07
19410,4.97019277171229E-07
19440,4.97387280077451E-07
19470,4.97582615605824E-07
19500,4.97697001045218E-07
19530,4.97761283941312E-07
19560,4.97800735769135E-07
19590,4.97825953858937E-07
19620,4.97842640223963E-07
19650,4.97854020333722E-07
19680,4.97862080314917E-07
19710,4.97868028582612E-07
19740,4.97872628744669E-07
19770,4.97876285571252E-07
19800,4.97879164340958E-07
19830,5.15831680359465E-07
19860,4.90728811119855E-07
19890,4.91941207143727E-07
19920,4.90167444992078E-07
19950,4.8081833552753E-07
19980,4.7998676303327E-07
20010,4.79838918325398E-07
20040,4.79818656745212E-07
20070,4.79818656745212E-07
20100,4.79818656745212E-07
20130,4.79818656745212E-07
20160,4.79818656745212E-07
20190,4.79818656745212E-07
20220,4.79818656745212E-07
20250,4.79818656745212E-07
20280,4.79818656745212E-07
20310,4.79818656745212E-07
20340,4.79818656745212E-07
20370,4.79818656745212E-07
20400,4.79818656745212E-07
20430,2.84031107898054E-07
20460,0
20490,0
20520,0
20550,0
20580,0
20610,0
20640,0
20670,0
20700,0
20730,0
20760,0
20790,0
20820,0
20850,0
20880,0
20910,0
20940,0
20970,0
21000,0
21030,0
21060,1.89991724553648E-07
21090,1.89991724553648E-07
21120,1.89991724553648E-07
21150,1.89991724553648E-07
21180,1.89991724553648E-07
21210,1.89991724553648E-07
21240,1.89991724553648E-07
21270,1.89991724553648E-07
21300,1.89991724553648E-07
21330,1.89991724553648E-07
21360,1.89991724553648E-07
21390,1.89991724553648E-07
21420,1.89991724553648E-07
21450,1.89991724553648E-07
21480,1.89991724553648E-07
21510,1.89991724553648E-07
21540,1.89991724553648E-07
21570,1.89991724553648E-07
21600,1.89991724553648E-07
21630,2.78472533442796E-07
21660,5.6217612051032E-07
21690,7.38514487392471E-07
21720,7.9147035976558E-07
21750,8.26841124780783E-07
21780,8.26841124780783E-07
21810,8.26841124780783E-07
21840,8.26841124780783E-07
21870,8.26841124780783E-07
21900,8.26841124780783E-07
21930,8.26841124780783E-07
21960,8.26841124780783E-07
21990,8.26841124780783E-07
22020,8.26841124780783E-07
22050,8.26841124780783E-07
22080,8.26841124780783E-07
22110,8.26841124780783E-07
22140,8.26841124780783E-07
22170,8.26841124780783E-07
22200,8.26841124780783E-07
22230,4.01279359935576E-07
22260,0
22290,0
22320,0
22350,0
22380,0
22410,0
22440,0
22470,0
22500,0
22530,0
22560,0
22590,0
22620,0
22650,0
22680,0
22710,0
22740,0
22770,0
22800,0
22830,2.81543741810873E-07
22860,4.51927373388348E-07
22890,5.74823322400913E-07
22920,6.34042000620807E-07
22950,6.58332461754085E-07
22980,6.70668186266379E-07
23010,6.77242073675087E-07
23040,6.80368661464395E-07
23070,6.81939102738445E-07
23100,6.82771165033859E-07
23130,6.8326179765478E-07
23160,6.83539055309103E-07
23190,6.83721336083791E-07
23220,6.83843087479338E-07
23250,6.83926678878143E-07
23280,6.83985476245226E-07
23310,6.84027727720038E-07
23340,6.84058671901372E-07
23370,6.84078301148119E-07
23400,6.84096340655074E-07
23430,4.31226977717402E-07
23460,2.81261483798738E-08
23490,3.66393755746588E-10
23520,0
23550,0
23580,0
23610,0
23640,0
23670,0
23700,0
23730,0
23760,0
23790,0
23820,0
23850,0
23880,0
23910,0
23940,0
23970,0
24000,0
24030,0
24060,3.196884201861E-07
24090,4.95900186527229E-07
24120,4.95900186527229E-07
24150,4.95900186527229E-07
24180,4.95900186527229E-07
24210,4.95900186527229E-07
24240,4.95900186527229E-07
24270,4.95900186527229E-07
24300,4.95900186527229E-07
24330,4.95900186527229E-07
24360,4.95900186527229E-07
24390,4.95900186527229E-07
24420,4.95900186527229E-07
24450,4.95900186527229E-07
24480,4.95900186527229E-07
24510,4.95900186527229E-07
24540,4.95900186527229E-07
24570,4.95900186527229E-07
24600,4.95900186527229E-07
24630,7.70904880508086E-07
24660,1.08597998160564E-06
24690,1.2150747843184E-06
24720,1.26764004842203E-06
24750,1.28812623366948E-06
24780,1.29779178138883E-06
24810,1.30212661010122E-06
24840,1.30488190542723E-06
24870,1.30652064562002E-06
24900,1.30733470324226E-06
24930,1.30777762281182E-06
24960,1.30804580498007E-06
24990,1.30821245231471E-06
25020,1.30831958424609E-06
25050,1.30839083902063E-06
25080,1.30843970066385E-06
25110,1.30847386223186E-06
25140,1.30849835145061E-06
25170,1.30851626696169E-06
25200,1.30852971287724E-06
25230,8.24857197988747E-07
25260,4.887490723687E-07
25290,2.94054014847567E-07
25320,2.4146178532835E-07
25350,2.35887925028006E-07
25380,2.35135431321187E-07
25410,2.34959736690639E-07
25440,2.34938386996323E-07
25470,2.34930463232137E-07
25500,2.34927494676939E-07
25530,2.3492673200462E-07
25560,2.3492673200462E-07
25590,2.3492673200462E-07
25620,2.3492673200462E-07
25650,2.3492673200462E-07
25680,2.3492673200462E-07
25710,2.3492673200462E-07
25740,2.3492673200462E-07
25770,2.3492673200462E-07
25800,2.3492673200462E-07
25830,4.79793035054129E-07
25860,7.65810186851977E-07
25890,9.0270518257857E-07
25920,9.51968731107441E-07
25950,9.64430155482327E-07
25980,9.66105090804299E-07
26010,9.68574567435242E-07
26040,9.69354535222438E-07
26070,9.69354535222438E-07
26100,9.69354535222438E-07
26130,9.69354535222438E-07
26160,9.69354535222438E-07
26190,9.69354535222438E-07
26220,9.69354535222438E-07
26250,9.69354535222438E-07
26280,9.69354535222438E-07
26310,9.69354535222438E-07
26340,9.69354535222438E-07
26370,9.69354535222438E-07
26400,9.69354535222438E-07
26430,9.06997549276442E-07
26460,8.75023016433951E-07
26490,4.87704634555391E-07
26520,4.87704634555391E-07
26550,4.87704634555391E-07
26580,4.87704634555391E-07
26610,4.87704634555391E-07
26640,4.87704634555391E-07
26670,4.87704634555391E-07
26700,4.87704634555391E-07
26730,4.87704634555391E-07
26760,4.87704634555391E-07
26790,4.87704634555391E-07
26820,4.87704634555391E-07
26850,4.87704634555391E-07
26880,4.87704634555391E-07
26910,4.87704634555391E-07
26940,4.87704634555391E-07
26970,4.87704634555391E-07
27000,4.87704634555391E-07
27030,7.71115922689215E-07
27060,8.72399005759788E-07
27090,8.30529597348202E-07
27120,8.22812642016458E-07
27150,8.20717381932347E-07
27180,8.20892328138203E-07
27210,8.20770318785822E-07
27240,8.20904567658431E-07
27270,8.20904567658431E-07
27300,8.20904567658431E-07
27330,8.20904567658431E-07
27360,8.20904567658431E-07
27390,8.20904567658431E-07
27420,8.20904567658431E-07
27450,8.20904567658431E-07
27480,8.20904567658431E-07
27510,8.20904567658431E-07
27540,8.20904567658431E-07
27570,8.20904567658431E-07
27600,8.20904567658431E-07
27630,7.40784081049837E-07
27660,7.02150103758877E-07
27690,4.71209360551796E-07
27720,4.71209360551796E-07
27750,4.71209360551796E-07
27780,4.71209360551796E-07
27810,4.71209360551796E-07
27840,4.71209360551796E-07
27870,4.71209360551796E-07
27900,4.71209360551796E-07
27930,4.71209360551796E-07
27960,4.71209360551796E-07
27990,4.71209360551796E-07
28020,4.71209360551796E-07
28050,4.71209360551796E-07
28080,4.71209360551796E-07
28110,4.71209360551796E-07
28140,4.71209360551796E-07
28170,4.71209360551796E-07
28200,4.71209360551796E-07
28230,6.37833905827235E-07
28260,6.10850910370743E-07
28290,7.13232626330744E-07
28320,7.28698774791343E-07
28350,7.59265042161649E-07
28380,7.59265042161649E-07
28410,7.59265042161649E-07
28440,7.59265042161649E-07
28470,7.59265042161649E-07
28500,7.59265042161649E-07
28530,7.59265042161649E-07
28560,7.59265042161649E-07
28590,7.59265042161649E-07
28620,7.59265042161649E-07
28650,7.59265042161649E-07
28680,7.59265042161649E-07
28710,7.59265042161649E-07
28740,7.59265042161649E-07
28770,7.59265042161649E-07
28800,7.59265042161649E-07
