空气伽马剂量率 间隔30s  (mSv/h)
计算时间(s)
30,0
60,3.53499103679886E-07
90,6.9231252046729E-07
120,8.42777716386948E-07
150,8.93988461048183E-07
180,8.93988461048183E-07
210,8.93988461048183E-07
240,8.93988461048183E-07
270,8.93988461048183E-07
300,8.93988461048183E-07
330,8.93988461048183E-07
360,8.93988461048183E-07
390,8.93988461048183E-07
420,8.93988461048183E-07
450,8.93988461048183E-07
480,8.93988461048183E-07
510,8.93988461048183E-07
540,8.93988461048183E-07
570,8.93988461048183E-07
600,8.93988461048183E-07
630,9.13916969645777E-07
660,9.28936262283966E-07
690,8.81959800977114E-07
720,8.62887798185538E-07
750,8.58811557961819E-07
780,8.64116619621581E-07
810,8.64116619621581E-07
840,8.64116619621581E-07
870,8.64116619621581E-07
900,8.64116619621581E-07
930,8.64116619621581E-07
960,8.64116619621581E-07
990,8.64116619621581E-07
1020,8.64116619621581E-07
1050,8.64116619621581E-07
1080,8.64116619621581E-07
1110,8.64116619621581E-07
1140,8.64116619621581E-07
1170,8.64116619621581E-07
1200,8.64116619621581E-07
1230,7.42531155762966E-07
1260,0
1290,0
1320,0
1350,0
1380,0
1410,0
1440,0
1470,0
1500,0
1530,0
1560,0
1590,0
1620,0
1650,0
1680,0
1710,0
1740,0
1770,0
1800,0
1830,0
1860,0
1890,0
1920,0
1950,0
1980,0
2010,0
2040,0
2070,0
2100,0
2130,0
2160,0
2190,0
2220,0
2250,0
2280,0
2310,0
2340,0
2370,0
2400,0
2430,7.54813369334516E-07
2460,9.58887265290546E-07
2490,1.0028898837566E-06
2520,1.01753126927556E-06
2550,1.0244559050676E-06
2580,1.02799723540655E-06
2610,1.0302073098549E-06
2640,1.0318389367018E-06
2670,1.03259993846602E-06
2700,1.03299942727001E-06
2730,1.03324356570325E-06
2760,1.0333888263059E-06
2790,1.03347915095554E-06
2820,1.03353745383536E-06
2850,1.03357631150568E-06
2880,1.03360293691743E-06
2910,1.03362162754027E-06
2940,1.03363463366796E-06
2970,1.03364452325257E-06
3000,1.03365204822551E-06
3030,6.74909890533736E-07
3060,2.40377978562387E-07
3090,2.42231909366229E-08
3120,2.84329980772165E-09
3150,4.45741414788695E-10
3180,9.95287308773158E-11
3210,2.76450765147033E-11
3240,4.74955403394143E-12
3270,3.20359974090734E-13
3300,0
3330,0
3360,0
3390,0
3420,0
3450,0
3480,0
3510,0
3540,0
3570,0
3600,0
3630,3.23038459619491E-07
3660,4.42111092936777E-07
3690,5.02269726248703E-07
3720,5.22801862191988E-07
3750,5.31955793832234E-07
3780,5.37348747236162E-07
3810,5.40019917588619E-07
3840,5.4123571375926E-07
3870,5.41833330568785E-07
3900,5.42156287529162E-07
3930,5.42357834040102E-07
3960,5.42483921367401E-07
3990,5.4256481438681E-07
4020,5.42619141634036E-07
4050,5.42655565582353E-07
4080,5.42681001954839E-07
4110,5.42699155794399E-07
4140,5.42712364623416E-07
4170,5.42722146166748E-07
4200,5.42729561327071E-07
4230,3.86764419314561E-07
4260,4.83916590587022E-08
4290,4.96964539682263E-09
4320,3.30505718574821E-10
4350,3.40015123856304E-11
4380,3.54072963682316E-12
4410,0
4440,0
4470,0
4500,0
4530,0
4560,0
4590,0
4620,0
4650,0
4680,0
4710,0
4740,0
4770,0
4800,0
4830,0
4860,0
4890,0
4920,0
4950,0
4980,0
5010,0
5040,0
5070,0
5100,0
5130,0
5160,0
5190,0
5220,0
5250,0
5280,0
5310,0
5340,0
5370,0
5400,0
5430,0
5460,2.19667271481433E-07
5490,2.19667271481433E-07
5520,2.19667271481433E-07
5550,2.19667271481433E-07
5580,2.19667271481433E-07
5610,2.19667271481433E-07
5640,2.19667271481433E-07
5670,2.19667271481433E-07
5700,2.19667271481433E-07
5730,2.19667271481433E-07
5760,2.19667271481433E-07
5790,2.19667271481433E-07
5820,2.19667271481433E-07
5850,2.19667271481433E-07
5880,2.19667271481433E-07
5910,2.19667271481433E-07
5940,2.19667271481433E-07
5970,2.19667271481433E-07
6000,2.19667271481433E-07
6030,2.21304094351139E-07
6060,2.15318992975144E-07
6090,2.15318992975144E-07
6120,2.15318992975144E-07
6150,2.15318992975144E-07
6180,2.15318992975144E-07
6210,2.15318992975144E-07
6240,2.15318992975144E-07
6270,2.15318992975144E-07
6300,2.15318992975144E-07
6330,2.15318992975144E-07
6360,2.15318992975144E-07
6390,2.15318992975144E-07
6420,2.15318992975144E-07
6450,2.15318992975144E-07
6480,2.15318992975144E-07
6510,2.15318992975144E-07
6540,2.15318992975144E-07
6570,2.15318992975144E-07
6600,2.15318992975144E-07
6630,0
6660,0
6690,0
6720,0
6750,0
6780,0
6810,0
6840,0
6870,0
6900,0
6930,0
6960,0
6990,0
7020,0
7050,0
7080,0
7110,0
7140,0
7170,0
7200,0
7230,0
7260,0
7290,0
7320,0
7350,0
7380,0
7410,0
7440,0
7470,0
7500,0
7530,0
7560,0
7590,0
7620,0
7650,0
7680,0
7710,0
7740,0
7770,0
7800,0
7830,0
7860,0
7890,0
7920,0
7950,0
7980,0
8010,0
8040,0
8070,0
8100,0
8130,0
8160,0
8190,0
8220,0
8250,0
8280,0
8310,0
8340,0
8370,0
8400,0
8430,0
8460,0
8490,0
8520,0
8550,0
8580,0
8610,0
8640,0
8670,0
8700,0
8730,0
8760,0
8790,0
8820,0
8850,0
8880,0
8910,0
8940,0
8970,0
9000,0
9030,0
9060,0
9090,0
9120,0
9150,0
9180,0
9210,0
9240,0
9270,0
9300,0
9330,0
9360,0
9390,0
9420,0
9450,0
9480,0
9510,0
9540,0
9570,0
9600,0
9630,0
9660,0
9690,0
9720,0
9750,0
9780,0
9810,0
9840,0
9870,0
9900,0
9930,0
9960,0
9990,0
10020,0
10050,0
10080,0
10110,0
10140,0
10170,0
10200,0
10230,0
10260,0
10290,0
10320,0
10350,0
10380,0
10410,0
10440,0
10470,0
10500,0
10530,0
10560,0
10590,0
10620,0
10650,0
10680,0
10710,0
10740,0
10770,0
10800,0
10830,0
10860,0
10890,0
10920,0
10950,0
10980,0
11010,0
11040,0
11070,0
11100,0
11130,0
11160,0
11190,0
11220,0
11250,0
11280,0
11310,0
11340,0
11370,0
11400,0
11430,0
11460,0
11490,0
11520,0
11550,0
11580,0
11610,0
11640,0
11670,0
11700,0
11730,0
11760,0
11790,0
11820,0
11850,0
11880,0
11910,0
11940,0
11970,0
12000,0
12030,2.78028234417538E-07
12060,3.30582993047306E-07
12090,3.59029892872992E-07
12120,3.67073734913104E-07
12150,3.71791699590729E-07
12180,3.73783037525665E-07
12210,3.74630613826711E-07
12240,3.75031935031386E-07
12270,3.752491621792E-07
12300,3.75381924206834E-07
12330,3.75463190047049E-07
12360,3.75514275886983E-07
12390,3.75547580780882E-07
12420,3.75569984509694E-07
12450,3.75585470335981E-07
12480,3.75596431763926E-07
12510,3.7560439553801E-07
12540,3.75610388219432E-07
12570,3.75615051188067E-07
12600,3.75618844190634E-07
12630,3.392874484492E-07
12660,3.02590554001144E-07
12690,2.88270508514164E-07
12720,2.8436327700665E-07
12750,2.83352549314913E-07
12780,2.83072114856881E-07
12810,2.82986071097922E-07
12840,2.82957058608686E-07
12870,2.82945951211952E-07
12900,2.82941250086374E-07
12930,2.82938966917423E-07
12960,2.82938317901601E-07
12990,2.82938251188435E-07
13020,2.82938178243094E-07
13050,2.82938485442403E-07
13080,2.82938817724806E-07
13110,2.82938906393754E-07
13140,2.82939232606702E-07
13170,2.82939530111863E-07
13200,2.82939582253333E-07
13230,2.0455443093646E-07
13260,2.38219882567255E-08
13290,6.21518535395764E-10
13320,0
13350,0
13380,0
13410,0
13440,0
13470,0
13500,0
13530,0
13560,0
13590,0
13620,0
13650,0
13680,0
13710,0
13740,0
13770,0
13800,0
13830,1.47326658639361E-07
13860,1.92847981211068E-07
13890,2.19694527098616E-07
13920,2.27304374657617E-07
13950,2.30041532965447E-07
13980,2.31127972233698E-07
14010,2.31555754538466E-07
14040,2.31761634073624E-07
14070,2.31882122731088E-07
14100,2.31951562444995E-07
14130,2.31993666431232E-07
14160,2.320203075603E-07
14190,2.32037785034482E-07
14220,2.32049611182521E-07
14250,2.32057830204675E-07
14280,2.32063744354577E-07
14310,2.32068247387134E-07
14340,2.32070847248487E-07
14370,2.32073847316137E-07
14400,2.32076245407918E-07
14430,1.55997055703931E-07
14460,6.76290285404537E-09
14490,5.37295320233506E-11
14520,0
14550,0
14580,0
14610,0
14640,0
14670,0
14700,0
14730,0
14760,0
14790,0
14820,0
14850,0
14880,0
14910,0
14940,0
14970,0
15000,0
15030,0
15060,0
15090,0
15120,0
15150,0
15180,0
15210,0
15240,0
15270,0
15300,0
15330,0
15360,0
15390,0
15420,0
15450,0
15480,0
15510,0
15540,0
15570,0
15600,0
15630,0
15660,0
15690,0
15720,0
15750,0
15780,0
15810,0
15840,0
15870,0
15900,0
15930,0
15960,0
15990,0
16020,0
16050,0
16080,0
16110,0
16140,0
16170,0
16200,0
16230,0
16260,0
16290,0
16320,0
16350,0
16380,0
16410,0
16440,0
16470,0
16500,0
16530,0
16560,0
16590,0
16620,0
16650,0
16680,0
16710,0
16740,0
16770,0
16800,0
16830,0
16860,0
16890,0
16920,0
16950,0
16980,0
17010,0
17040,0
17070,0
17100,0
17130,0
17160,0
17190,0
17220,0
17250,0
17280,0
17310,0
17340,0
17370,0
17400,0
17430,1.62844524271453E-07
17460,2.98538869430394E-07
17490,3.37973321673479E-07
17520,3.56960736432215E-07
17550,3.65748961027486E-07
17580,3.69802240189626E-07
17610,3.71781836729412E-07
17640,3.72775750770921E-07
17670,3.73296104002422E-07
17700,3.73595747106888E-07
17730,3.73771012976663E-07
17760,3.73890624495676E-07
17790,3.73969506291897E-07
17820,3.74023031434254E-07
17850,3.74060273903853E-07
17880,3.74086768734469E-07
17910,3.74105993246432E-07
17940,3.74120190589306E-07
17970,3.74129456857071E-07
18000,3.74137805534363E-07
18030,3.06524741296856E-07
18060,2.52662621718449E-07
18090,2.29646863992418E-07
18120,2.20941762233186E-07
18150,2.17967687493178E-07
18180,2.16896965963676E-07
18210,2.16483428949337E-07
18240,2.16312284519102E-07
18270,2.16234613901337E-07
18300,2.1619781707343E-07
18330,2.16178580153509E-07
18360,2.16166451576485E-07
18390,2.16160341044447E-07
18420,2.16155782036968E-07
18450,2.16151604443427E-07
18480,2.16148238700538E-07
18510,2.16143355028226E-07
18540,2.16140235657131E-07
18570,2.1613400064416E-07
18600,2.16130028980994E-07
18630,1.8402103515652E-07
18660,2.22780671061979E-09
18690,0
18720,0
18750,0
18780,0
18810,0
18840,0
18870,0
18900,0
18930,0
18960,0
18990,0
19020,0
19050,0
19080,0
19110,0
19140,0
19170,0
19200,0
19230,1.7381000582206E-07
19260,2.69144581703331E-07
19290,3.05791420813416E-07
19320,3.1739650648263E-07
19350,3.2207749841371E-07
19380,3.23766923366626E-07
19410,3.24460556542926E-07
19440,3.24766591690966E-07
19470,3.24933121636024E-07
19500,3.25029596417013E-07
19530,3.250869526185E-07
19560,3.25122645368452E-07
19590,3.25145730244418E-07
19620,3.25161160258038E-07
19650,3.25171770348869E-07
19680,3.25179296146673E-07
19710,3.25184893684183E-07
19740,3.25189253045479E-07
19770,3.2519274014569E-07
19800,3.2519550119468E-07
19830,3.11070074762304E-07
19860,1.05460952477403E-07
19890,2.88790847472637E-08
19920,2.61977666140689E-09
19950,3.69800270571261E-10
19980,5.07222151622982E-11
20010,6.35233863581272E-12
20040,0
20070,0
20100,0
20130,0
20160,0
20190,0
20220,0
20250,0
20280,0
20310,0
20340,0
20370,0
20400,0
20430,0
20460,0
20490,0
20520,0
20550,0
20580,0
20610,0
20640,0
20670,0
20700,0
20730,0
20760,0
20790,0
20820,0
20850,0
20880,0
20910,0
20940,0
20970,0
21000,0
21030,0
21060,0
21090,0
21120,0
21150,0
21180,0
21210,0
21240,0
21270,0
21300,0
21330,0
21360,0
21390,0
21420,0
21450,0
21480,0
21510,0
21540,0
21570,0
21600,0
21630,0
21660,2.2796109639424E-07
21690,4.03049748869242E-07
21720,4.03049748869242E-07
21750,4.03049748869242E-07
21780,4.03049748869242E-07
21810,4.03049748869242E-07
21840,4.03049748869242E-07
21870,4.03049748869242E-07
21900,4.03049748869242E-07
21930,4.03049748869242E-07
21960,4.03049748869242E-07
21990,4.03049748869242E-07
22020,4.03049748869242E-07
22050,4.03049748869242E-07
22080,4.03049748869242E-07
22110,4.03049748869242E-07
22140,4.03049748869242E-07
22170,4.03049748869242E-07
22200,4.03049748869242E-07
22230,0
22260,0
22290,0
22320,0
22350,0
22380,0
22410,0
22440,0
22470,0
22500,0
22530,0
22560,0
22590,0
22620,0
22650,0
22680,0
22710,0
22740,0
22770,0
22800,0
22830,1.13256130240474E-07
22860,2.68238426461902E-07
22890,3.39599981195754E-07
22920,3.87739468368122E-07
22950,4.0837123370912E-07
22980,4.18185219090659E-07
23010,4.23093738720059E-07
23040,4.25386036226158E-07
23070,4.26579367120246E-07
23100,4.27229930306499E-07
23130,4.27605220767225E-07
23160,4.27836146809001E-07
23190,4.27991005030746E-07
23220,4.28096182446727E-07
23250,4.28169440136072E-07
23280,4.28221616832597E-07
23310,4.28259523797815E-07
23340,4.28287556112434E-07
23370,4.28308618317028E-07
23400,4.2832467181851E-07
23430,1.5577854189536E-07
23460,9.93620831638492E-09
23490,0
23520,0
23550,0
23580,0
23610,0
23640,0
23670,0
23700,0
23730,0
23760,0
23790,0
23820,0
23850,0
23880,0
23910,0
23940,0
23970,0
24000,0
24030,0
24060,0
24090,0
24120,0
24150,0
24180,0
24210,0
24240,0
24270,0
24300,0
24330,0
24360,0
24390,0
24420,0
24450,0
24480,0
24510,0
24540,0
24570,0
24600,0
24630,4.53197006898962E-07
24660,6.52213621664932E-07
24690,7.50467699754705E-07
24720,7.92948542502597E-07
24750,8.10895375198887E-07
24780,8.18771191921748E-07
24810,8.23268181839197E-07
24840,8.26126472039349E-07
24870,8.27482991050469E-07
24900,8.28174386553055E-07
24930,8.28557995416243E-07
24960,8.28794532220877E-07
24990,8.289428438313E-07
25020,8.29039373128157E-07
25050,8.29104332712652E-07
25080,8.29148932326826E-07
25110,8.29180398976373E-07
25140,8.29203080505327E-07
25170,8.29219861793526E-07
25200,8.29232349098506E-07
25230,5.1994166419363E-07
25260,1.65812923931766E-07
25290,1.92423614512546E-08
25320,2.48321260654788E-09
25350,4.63186935855917E-10
25380,8.19682458058007E-11
25410,2.37822703126478E-11
25440,7.14009315715954E-12
25470,1.79059912533966E-12
25500,1.36895470922058E-13
25530,0
25560,0
25590,0
25620,0
25650,0
25680,0
25710,0
25740,0
25770,0
25800,0
25830,0
25860,2.99439959590458E-07
25890,4.99158336725492E-07
25920,5.63896304705086E-07
25950,5.82730588632498E-07
25980,5.82730588632498E-07
26010,5.82730588632498E-07
26040,5.82730588632498E-07
26070,5.82730588632498E-07
26100,5.82730588632498E-07
26130,5.82730588632498E-07
26160,5.82730588632498E-07
26190,5.82730588632498E-07
26220,5.82730588632498E-07
26250,5.82730588632498E-07
26280,5.82730588632498E-07
26310,5.82730588632498E-07
26340,5.82730588632498E-07
26370,5.82730588632498E-07
26400,5.82730588632498E-07
26430,0
26460,0
26490,0
26520,0
26550,0
26580,0
26610,0
26640,0
26670,0
26700,0
26730,0
26760,0
26790,0
26820,0
26850,0
26880,0
26910,0
26940,0
26970,0
27000,0
27030,3.050529180868E-07
27060,4.7609480237993E-07
27090,4.82654021986352E-07
27120,4.84424450275565E-07
27150,4.83141978815198E-07
27180,4.84898277083989E-07
27210,4.84898277083989E-07
27240,4.84898277083989E-07
27270,4.84898277083989E-07
27300,4.84898277083989E-07
27330,4.84898277083989E-07
27360,4.84898277083989E-07
27390,4.84898277083989E-07
27420,4.84898277083989E-07
27450,4.84898277083989E-07
27480,4.84898277083989E-07
27510,4.84898277083989E-07
27540,4.84898277083989E-07
27570,4.84898277083989E-07
27600,4.84898277083989E-07
27630,4.5006624187848E-07
27660,0
27690,0
27720,0
27750,0
27780,0
27810,0
27840,0
27870,0
27900,0
27930,0
27960,0
27990,0
28020,0
28050,0
28080,0
28110,0
28140,0
28170,0
28200,0
28230,0
28260,2.15959485011926E-07
28290,2.15959485011926E-07
28320,2.15959485011926E-07
28350,2.15959485011926E-07
28380,2.15959485011926E-07
28410,2.15959485011926E-07
28440,2.15959485011926E-07
28470,2.15959485011926E-07
28500,2.15959485011926E-07
28530,2.15959485011926E-07
28560,2.15959485011926E-07
28590,2.15959485011926E-07
28620,2.15959485011926E-07
28650,2.15959485011926E-07
28680,2.15959485011926E-07
28710,2.15959485011926E-07
28740,2.15959485011926E-07
28770,2.15959485011926E-07
28800,2.15959485011926E-07
